828073152,1.69474
828077431,1.975972
828081844,2.481282
828086277,3.028437
828090779,3.155784
828095355,2.735926
828099942,2.034786
828138831,1.654456
828143552,1.661707
828148341,1.627013
828153166,1.615734
828158086,1.658485
828163074,1.691517
828168388,1.684266
828173653,1.671376
828178997,1.691517
828184432,1.697157
828189723,1.695546
828232652,1.764028
828238210,1.790616
828243833,1.809146
828249492,1.789004
828255192,1.793838
828261014,1.838956
828266888,1.834122
828272649,1.818814
828310450,1.818009
828316556,1.818009
828352401,1.689101
828391191,1.624596
828429317,1.634264
828463769,1.678627
828501027,1.681044
828537370,1.638292
828575687,1.62379
828614382,1.618151
828652207,1.693934
828688989,1.818814
828763472,1.586729
828802097,3.212987
828839600,1.30872
828879674,1.698769
828917454,1.732607
828956972,1.792227
828994820,1.822037
829034697,1.705214
829077173,1.603648
829121931,1.62943
829163200,1.650428
829206699,1.645544
829245055,1.617345
829287769,1.602037
829329585,1.613317
829371279,1.581089
829443347,1.67621
829484325,1.566587
829523328,1.63507
829564311,0.7631266
829603790,1.665736
829643513,1.71891
829686288,1.773697
829726229,1.852653
829767573,1.851847
829809045,1.687489
829850368,1.641515
829893490,1.651234
829935488,1.656873
829978749,1.698769
830022436,1.679432
830063067,1.679432
830142726,1.660902
830182923,1.871234
830223356,1.584312
830263748,1.59398
830304658,3.221044
830345473,1.571421
830388540,1.684266
830429453,1.743081
830473759,1.844596
830516527,1.856732
830559452,1.693129
830603858,1.597203
830647451,1.628624
830692380,1.592369
830734257,1.571421
830779304,1.580284
830855717,1.570616
830899091,1.603648
830940572,1.654456
830987071,1.739858
831029159,1.566587
831073350,1.502939
831115583,0.8775829
831159969,1.610094
831203905,1.701991
831248338,1.763223
831295635,1.747109
831341667,1.661707
831384579,1.557725
831429653,1.560142
831472726,1.573838
831516037,1.56417
831594935,1.557725
831642601,1.597203
831689243,1.652039
831732244,1.685072
831776039,1.542417
831821392,1.922797
831865104,1.134644
831909365,1.660902
831953509,1.716493
832001182,1.807535
832045501,1.822037
832090312,1.709242
832137047,1.621373
832183707,1.70038
832228821,1.685878
832275521,1.651234
832353966,1.647155
832400624,1.693934
832448810,1.895404
832497134,1.581895
832544665,1.602037
832588486,0.9573449
832634797,1.668153
832682352,1.776114
832729603,1.820426
832778124,1.833316
832830254,1.644738
832879360,1.60526
832927262,1.619762
832974810,1.576255
833023762,1.592369
833074823,1.556919
833155418,1.590758
833201636,1.768057
833250124,1.51583
833298909,2.101707
833347258,1.419098
833395904,1.679432
833442746,1.805118
833489746,1.859954
833538805,1.834122
833585811,1.671376
833636276,1.610094
833683387,1.654456
833730515,1.625402
833777429,1.612511
833825040,1.654456
833876414,1.63507
833957660,1.641515
834002974,1.598814
834052029,3.232323
834101034,1.644738
834154697,1.722133
834205389,1.814786
834255041,1.826066
834303325,1.728579
834354465,1.574644
834404907,1.631847
834455051,1.601231
834505428,1.602843
834556178,1.595592
834609129,1.594786
834659780,1.685072
834709408,1.527915
834794808,2.718201
834844015,1.602843
834893571,1.684266
834945235,1.793033
834998575,1.787393
835048635,1.641515
835100712,1.586729
835150800,1.569004
835202738,1.63507
835254771,1.596397
835307149,1.630236
835359468,1.79545
835412590,1.558531
835463432,2.641611
835517824,1.566587
835572213,1.687489
835662524,1.812369
835716049,1.708437
835767980,1.665736
835822507,1.679432
835873927,1.62943
835924330,1.666541
835977854,1.716493
836030299,1.686683
836083769,1.592369
836137461,2.403081
836189272,1.601231
836243537,1.743886
836296046,1.815592
836345784,1.834122
836398517,1.647155
836451699,1.627013
836547958,1.655262
836603175,1.631847
836658978,1.709242
836714817,1.544028
836769501,1.473129
836824448,0.974264
836879533,1.681044
836932639,1.757583
836990464,1.816397
837044760,1.705214
837100786,1.606871
837162280,1.650428
837220445,1.626207
837277280,1.600426
837332093,1.725356
837390952,1.554502
837479018,3.220238
837537278,1.616539
837594580,1.717299
837685504,1.865594
837720738,1.726162
837759029,1.596397
837797638,1.610094
837831288,1.609288
837867236,1.633458
837901155,1.600426
837938755,1.582701
837974903,1.552085
838009442,1.598814
838047151,1.788199
838083848,1.51583
838122911,1.502133
838193759,0.9557335
838232236,1.566587
838267377,1.638292
838306095,1.696352
838341477,1.750332
838380367,1.770474
838417830,1.633458
838453035,1.527109
838490362,1.569004
838525899,1.606871
838563324,1.612511
838601145,1.595592
838639003,1.560948
838675132,1.56981
838713338,1.589146
838751445,1.826066
838822176,1.558531
838861173,2.510286
838897058,1.108057
838937126,1.614928
838974008,1.697963
839012899,1.770474
839053118,1.79545
839096282,1.747915
839136715,1.656873
839178205,1.637487
839214844,1.65929
839253203,1.680238
839293036,1.614122
839333047,1.622179
839372613,1.613317
839412148,1.635875
839485840,1.735024
839524739,1.607677
839562812,1.526304
839599354,2.217725
839639997,1.638292
839678373,1.73019
839719015,1.79545
839758219,1.844596
839798237,1.863177
839840756,1.735024
839881970,1.650428
839924871,1.650428
839967459,1.669764
840004440,1.672987
840046272,1.639904
840084537,1.63507
840155720,1.638292
840197144,1.785782
840239026,1.588341
840280839,1.589952
840321023,3.183177
840361167,1.376397
840404799,1.717299
840445944,1.774502
840487348,1.851847
840530910,1.871234
840570656,1.745498
840614694,1.601231
840658867,1.632653
840702069,1.637487
840742750,1.618956
840784274,1.613317
840861519,1.592369
840904921,1.646349
840947178,1.652845
840990220,1.658485
841029189,1.859149
841071947,1.56981
841115169,1.523081
841157801,1.864788
841202806,1.592369
841247158,1.72455
841290162,1.776114
841332325,1.831705
841373538,1.789004
841415799,1.650428
841459686,1.608482
841505591,1.656873
841585935,1.639098
841630334,1.627013
841670691,1.606871
841716971,1.595592
841757448,1.612511
841800433,1.830899
841842522,1.552891
841886188,1.53436
841928304,1.615734
841973662,1.562559
842019113,1.63507
842063608,1.757583
842106427,1.787393
842151963,1.681044
842197354,1.533555
842241240,1.548057
842323999,1.552085
842371800,1.529526
842418216,1.485214
842462085,1.493271
842506199,1.526304
842551981,1.531138
842598153,1.736635
842645873,1.533555
842697067,1.764028
842745232,1.281327
842790319,1.622985
842835864,1.697963
842883293,1.82526
842931314,1.851847
842976917,1.610899
843024548,1.628624
843104525,1.639904
843152249,1.618151
843196956,1.637487
843241621,1.658485
843287853,1.679432
843333705,1.664124
843381824,1.753555
843428029,1.672181
843476009,1.625402
843523983,2.588437
843570443,1.663319
843616120,1.734219
843662972,1.832511
843713599,1.910712
843763049,1.790616
843809003,1.677015
843891151,1.67621
843938067,1.637487
843990922,1.650428
844040045,1.640709
844089431,1.651234
844137087,1.63507
844188105,1.797867
844235772,1.580284
844285528,1.51583
844335105,1.112891
844385110,1.709242
844433568,1.749526
844483824,1.834122
844532091,1.851041
844582170,1.678627
844630394,1.660096
844711337,1.652845
844762231,1.627819
844814717,1.610094
844863265,1.626207
844911056,1.634264
844958897,1.626207
845010809,1.884124
845062090,1.594786
845114267,2.036397
845165731,1.56981
845217674,1.708437
845266809,1.809952
845319517,1.878485
845371768,1.757583
845427495,1.622179
845480923,1.618956
845568763,1.639098
845620694,1.606871
845671114,1.610094
845720266,1.585924
845770941,1.638292
845823718,1.822037
845876501,1.544028
845928959,1.651234
845979890,1.197487
846034403,1.658485
846087035,1.79545
846138433,1.84943
846191999,1.716493
846245524,1.59962
846303523,1.606065
846357759,1.581089
846445558,1.638292
846499673,1.584312
846552743,1.669764
846605873,1.588341
846661397,1.494076
846711879,1.113696
846768666,1.657679
846822441,1.751943
846876567,1.799478
846936260,1.698769
846991406,1.626207
847044517,1.689101
847098405,1.639904
847155042,1.624596
847209741,1.656873
847267275,1.693934
847361570,1.59398
847421076,3.23474
847475803,1.617345
847534910,1.727773
847591881,1.82526
847645170,1.824454
847700492,1.610094
847756119,1.609288
847814652,1.59398
847870509,1.622179
847926242,1.622985
848016313,1.769668
848053389,1.603648
848089293,1.566587
848126577,1.714882
848160403,0.9114213
848231130,1.678627
848265353,1.736635
848301658,1.78981
848337887,1.832511
848372193,1.785782
848408439,1.640709
848442845,1.556919
848479208,1.560948
848517829,1.59398
848556144,1.573033
848591375,1.574644
848628541,1.547251
848665553,1.59962
848701192,1.593175
848740454,1.821231
848774214,1.506967
848846977,1.859954
848884718,1.089526
848919677,1.579478
848959921,1.641515
848998903,1.742275
849036674,1.827677
849076431,1.770474
849113052,1.710048
849153919,1.603648
849192573,1.650428
849231585,1.680238
849269260,1.661707
849307807,1.667347
849343353,1.647155
849379012,1.633458
849416159,1.729384
849485372,1.60526
849524310,1.506162
849559024,2.618247
849598848,1.615734
849638187,1.680238
849678981,1.740664
849719155,1.818814
849757848,1.829288
849800264,1.710854
849841738,1.644738
849878214,1.618956
849917909,1.652039
849955764,1.627819
849995713,1.606871
850034884,1.59962
850075161,1.607677
850150245,1.66493
850188434,1.564976
850227762,1.496493
850269386,0.8888624
850310415,1.632653
850351642,1.713271
850393298,1.788199
850432095,1.877679
850475045,1.806729
850515840,1.651234
850560135,1.589146
850600650,1.650428
850641212,1.652039
850680823,1.614928
850724495,1.622179
850764056,1.606871
850840190,1.841373
850879795,1.54
850922405,1.564976
850964621,2.904362
851006210,1.589952
851050277,1.690712
851093425,1.738247
851134318,1.805923
851176410,1.782559
851218570,1.681044
851259854,1.611705
851302606,1.655262
851348736,1.652845
851394632,1.607677
851437231,1.612511
851476177,1.611705
851556395,1.586729
851598488,1.568199
851642472,2.836635
851685375,1.234548
851728142,1.684266
851770069,1.768862
851813334,1.838956
851857751,1.782559
851901353,1.704408
851942902,1.640709
851986701,1.681044
852029213,1.679432
852073674,1.631847
852118186,1.594786
852164286,1.643127
852209438,1.632653
852281899,1.811563
852327354,1.542417
852374158,1.462655
852417825,0.7792401
852464639,1.643932
852514237,1.708437
852560206,1.773697
852606419,1.803506
852652197,1.666541
852698504,1.57545
852747754,1.624596
852791429,1.625402
852837190,1.581089
852882302,1.585924
852928143,1.597203
852972498,1.614122
853055536,1.81398
853100576,1.527915
853145593,1.496493
853192714,0.8622751
853239816,1.614122
853287001,1.73583
853334336,1.78417
853379538,1.807535
853423417,1.699574
853469214,1.608482
853519758,1.60526
853566036,1.632653
853612192,1.588341
853658007,1.564976
853703977,1.593175
853755619,1.595592
853839982,1.588341
853887241,1.635875
853936082,1.748721
853985388,1.539194
854031887,1.716493
854080412,1.204738
854129065,1.662513
854177078,1.697157
854226380,1.79545
854273416,1.747915
854319788,1.569004
854367633,1.562559
854413756,1.555308
854460056,1.555308
854510974,1.566587
854561086,1.542417
854644104,1.584312
854692063,1.607677
854740300,1.768862
854790192,1.589146
854840099,2.167773
854889997,1.344976
854940081,1.678627
854990615,1.779336
855039246,1.799478
855091351,1.755972
855141843,1.620568
855195132,1.647155
855245540,1.66493
855296517,1.614928
855347866,1.650428
855397357,1.632653
855481741,1.666541
855532474,1.806729
855583274,1.621373
855633919,2.951092
855685548,1.677821
855734527,1.734219
855787871,1.85507
855838523,1.829288
855888981,1.756777
855939345,1.626207
855992170,1.685878
856048347,1.664124
856102046,1.625402
856155043,1.620568
856206477,1.638292
856259410,1.613317
856347591,1.581089
856402176,1.506967
856453396,1.145118
856508804,1.697157
856561442,1.768057
856615563,1.809952
856675080,1.693934
856731306,1.619762
856784733,1.619762
856838037,1.617345
856893877,1.597203
856945757,1.615734
857002214,1.616539
857057482,1.761611
857116023,1.561753
857171527,2.33057
857263233,1.684266
857320390,1.75436
857374819,1.830899
857429324,1.719716
857481739,1.59962
857537988,1.622985
857594779,1.614122
857647818,1.620568
857702074,1.608482
857759111,1.62379
857812408,1.738247
857869316,1.581895
857921813,1.57545
857977478,1.324028
858032345,1.704408
858088753,1.796255
858182247,1.726162
858234812,1.621373
858291354,1.650428
858377482,1.620568
858413901,1.626207
858451183,1.652039
858486278,1.633458
858521317,1.706825
858557211,1.776114
858591671,1.588341
858629544,1.589952
858663913,3.110666
858700367,1.054882
858734840,1.62943
858771555,1.706825
858810611,1.767251
858885442,1.78417
858923860,1.639098
858963371,1.588341
858998838,1.598814
859037525,1.567393
859074900,1.556919
859113720,1.556113
859151028,1.559336
859188313,1.563365
859223839,1.582701
859259312,1.753555
859295350,1.505356
859329538,1.526304
859368933,2.038814
859405394,0.9807095
859444962,1.606065
859519087,1.684266
859557141,1.75436
859596963,1.735024
859635529,1.62379
859676822,1.56417
859716859,1.594786
859752200,1.608482
859790638,1.598814
859827501,1.614122
859866050,1.606065
859903020,1.585924
859942154,1.647155
859979900,1.818814
860017548,1.543223
860057370,1.553697
860098327,3.215404
860174097,1.680238
860213733,1.745498
860256082,1.78417
860294052,1.817203
860335508,1.747109
860375736,1.614928
860419410,1.607677
860457477,1.639098
860499017,1.613317
860537754,1.613317
860582205,1.616539
860623511,1.615734
860664782,1.702797
860706120,1.781753
860747386,1.596397
860788582,1.502133
860865767,1.621373
860908518,1.737441
860951495,1.811563
860991220,1.85507
861033160,1.833316
861075073,1.691517
861115328,1.631041
861157095,1.672181
861201928,1.65929
861246769,1.666541
861289080,1.668153
861328025,1.661707
861370653,1.742275
861409622,1.788199
861452531,1.615734
861493046,1.562559
861568308,1.687489
861609034,1.739052
861652072,1.799478
861695354,1.818009
861738817,1.785782
861780541,1.692323
861824087,1.681044
861865472,1.722133
861908689,1.703603
861953722,1.678627
861998689,1.63507
862042630,1.656873
862084745,1.874456
862129178,1.594786
862174745,1.573033
862220095,1.538389
862306461,1.741469
862353343,1.818814
862395863,1.809146
862440097,1.738247
862484194,1.664124
862530334,1.675404
862571667,1.660096
862616622,1.62943
862661336,1.598814
862704368,1.619762
862749417,1.624596
862794302,1.749526
862836842,1.52872
862879282,1.533555
862923957,3.220238
862967252,1.59962
863047023,1.753555
863091147,1.809952
863135338,1.791421
863177975,1.618956
863222555,1.600426
863270624,1.631041
863315551,1.610094
863358760,1.590758
863403439,1.573838
863450104,1.606871
863501472,1.596397
863549732,1.822037
863595027,1.553697
863638831,1.550474
863687844,1.608482
863733130,1.638292
863821642,1.78981
863869056,1.845402
863916813,1.716493
863964629,1.610899
864012598,1.634264
864060514,1.611705
864108182,1.632653
864154154,1.612511
864199980,1.602037
864249570,1.674598
864299421,1.631041
864345980,1.888959
864392955,1.602037
864439502,1.469906
864488069,1.149146
864536757,1.678627
864619766,1.782559
864668603,1.845402
864718497,1.693934
864765756,1.660096
864815055,1.664124
864864403,1.652845
864914135,1.656873
864963828,1.626207
865014085,1.650428
865063602,1.639098
865113672,1.735024
865159973,1.576255
865208017,2.219336
865257363,1.29583
865306522,1.701991
865358067,1.756777
865444886,1.764028
865495580,1.627819
865544773,1.652845
865594454,1.637487
865642542,1.609288
865693422,1.622179
865748146,1.628624
865800624,1.684266
865852610,1.668153
865905369,1.560948
865956321,2.950286
866007157,1.625402
866060417,1.740664
866110333,1.833316
866163849,1.812369
866214174,1.655262
866299942,1.598814
866358307,1.579478
866413306,1.608482
866465465,1.583507
866519385,1.59398
866575107,1.813175
866628420,1.557725
866684716,2.106541
866738923,1.562559
866795392,1.701991
866848789,1.813175
866904489,1.81398
866961386,1.642321
867014609,1.624596
867067848,1.632653
867118977,1.595592
867211588,1.627819
867265519,1.730996
867317672,1.60526
867372221,1.595592
867428904,1.223269
867480133,1.643932
867535800,1.73583
867588058,1.801089
867641603,1.73019
867693279,1.650428
867747053,1.67621
867800883,1.639904
867852505,1.651234
867906364,1.63507
867961280,1.785782
868018055,1.544834
868109467,0.9565392
868162863,1.640709
868218494,1.726162
868273580,1.807535
868327574,1.728579
868384918,1.625402
868437944,1.63507
868492916,1.642321
868546030,1.614928
868599133,1.579478
868656500,1.794644
868716033,1.523081
868808588,1.478769
868842610,1.650428
868879989,1.70602
868916138,1.778531
868991308,1.762417
869027178,1.652845
869063299,1.598814
869099406,1.636681
869135720,1.640709
869170343,1.672987
869203540,1.626207
869239887,1.614928
869274977,1.689101
869313271,1.884124
869350147,1.585924
869388546,1.590758
869428389,2.835024
869465660,1.141895
869504500,1.66493
869543220,1.740664
869611720,1.865594
869648886,1.81962
869684246,1.683461
869721861,1.59398
869759429,1.617345
869797458,1.626207
869833754,1.652039
869870241,1.647155
869908670,1.614928
869948467,1.831705
869986725,1.521469
870024919,1.53436
870064763,2.063035
870103575,0.9774868
870142257,1.57545
870179250,1.618151
870259986,1.699574
870297800,1.624596
870335724,1.51583
870371626,1.468295
870411518,1.492465
870447918,1.493271
870487612,1.473935
870525367,1.461849
870562252,1.508579
870601642,1.509384
870640414,1.34417
870682749,1.291801
870723157,1.176539
870761322,1.390094
870799785,1.460238
870837844,1.521469
870907074,1.606871
870945231,1.525498
870988804,1.50455
871031243,1.531943
871070144,1.538389
871107083,1.581895
871148306,1.572227
871186142,1.624596
871226841,1.643932
871267087,1.51019
871307456,1.59398
871346148,1.414264
871384991,1.56417
871426963,1.701991
871470308,1.774502
871510700,1.767251
871593488,1.683461
871633493,1.730996
871675752,1.743886
871719265,1.749526
871763008,1.705214
871805611,1.808341
871844797,1.799478
871885855,1.646349
871930241,1.926825
871972606,1.05891
872016557,1.607677
872062233,1.639904
872103357,1.668153
872146157,1.735024
872189535,1.686683
872233614,1.690712
872307052,1.702797
872350829,1.734219
872395759,1.73583
872439630,1.747915
872483281,1.624596
872527030,1.619762
872569144,2.537679
872611223,1.156397
872655285,1.698769
872699690,1.776919
872743930,1.816397
872786424,1.768057
872828994,1.761611
872871604,1.743886
872916509,1.783365
872962990,1.749526
873045025,1.70602
873088026,1.681044
873131136,1.705214
873176089,1.910712
873224937,1.60526
873270014,1.569004
873315635,1.007297
873359212,1.645544
873405317,1.727773
873452350,1.79545
873496661,1.802701
873541535,1.697963
873587828,1.655262
873633430,1.682655
873680243,1.635875
873725902,1.603648
873802346,1.593175
873848969,1.650428
873893600,1.645544
873938405,1.621373
873986768,1.652039
874035439,1.776919
874081020,1.583507
874128432,1.588341
874174112,1.268437
874221543,1.628624
874268947,1.749526
874318137,1.785782
874365857,1.828483
874413869,1.736635
874460014,1.60526
874509434,1.634264
874596992,1.621373
874647578,1.621373
874695522,1.632653
874743668,1.622179
874791990,1.696352
874840854,1.716493
874886040,1.590758
874933021,1.930854
874982071,1.40943
875030508,1.710854
875079337,1.750332
875126196,1.838151
875176609,1.790616
875225508,1.588341
875275089,1.589146
875324608,1.593175
875408149,1.59962
875460486,1.562559
875511478,1.614122
875562404,1.784976
875612849,1.531943
875662054,2.013838
875711370,1.384454
875762246,1.665736
875810699,1.751943
875863603,1.78981
875913452,1.721328
875963761,1.582701
876018519,1.603648
876070447,1.646349
876121475,1.563365
876175129,1.579478
876265966,1.550474
876318126,1.494076
876373355,1.1
876426131,1.656873
876480282,1.735024
876531614,1.791421
876586078,1.723745
876636874,1.627819
876686849,1.671376
876738816,1.639098
876790106,1.643932
876842912,1.696352
876895446,1.660902
876946294,1.554502
876999209,2.606162
877053348,1.59962
877141133,1.751138
877195335,1.766445
877248489,1.644738
877303297,1.59398
877354687,1.632653
877408143,1.614122
877461610,1.574644
877512932,1.86076
877566511,1.527915
877619469,1.581895
877674184,1.419098
877728062,1.697963
877781472,1.782559
877835858,1.818814
877889967,1.714882
877944472,1.646349
878039054,1.650428
878090891,1.678627
878145656,1.710048
878199573,1.766445
878254518,1.624596
878310893,2.731092
878369216,1.732607
878428018,1.827677
878481526,1.868011
878538306,1.800284
878595301,1.675404
878653482,1.688295
878708926,1.672987
878764365,1.631041
878819912,1.63507
878875456,1.852653
878961987,1.562559
879014383,1.137867
879070442,1.678627
879124827,1.769668
879213273,1.794644
879250275,1.698769
879287618,1.593175
879323591,1.60526
879362328,1.590758
879399627,1.573033
879432328,1.592369
879468208,1.556113
879504384,1.531138
879540549,1.663319
879576965,1.473129
879613449,1.426349
879687571,1.046825
879723509,1.40943
879759687,1.48602
879798024,1.540806
879833909,1.57545
879870063,1.579478
879907598,1.492465
879942227,1.421515
879980040,1.408624
880016695,1.432795
880054740,1.421515
880090159,1.413458
880127576,1.396539
880162022,1.398956
880200993,1.500522
880236350,1.543223
880307235,1.383648
880342671,3.042939
880380213,1.153175
880418261,1.529526
880456572,1.628624
880496723,1.681044
880535215,1.734219
880571861,1.701991
880610797,1.637487
880649799,1.641515
880686007,1.656873
880725422,1.682655
880766129,1.671376
880806778,1.680238
880845162,1.651234
880882889,1.801089
880961144,1.664124
880998962,1.581895
881038808,1.43924
881076443,1.740664
881116046,1.845402
881153936,1.892181
881194015,1.955024
881234257,1.919574
881274529,1.821231
881313015,1.746303
881354012,1.797061
881394690,1.802701
881435376,1.779336
881477860,1.734219
881520189,1.711659
881561578,1.743886
881632721,1.711659
881672474,1.677821
881715517,3.221849
881756487,1.477157
881800589,1.730996
881842467,1.793838
881883329,1.850236
881924707,1.840568
881967824,1.715688
882010637,1.637487
882050250,1.652039
882090520,1.657679
882132707,1.606871
882175113,1.577867
882215657,1.586729
882257736,1.560142
882334332,1.612511
882374320,1.53436
882416197,2.00981
882459209,0.9944059
882500977,1.584312
882542123,1.641515
882580691,1.701991
882621102,1.727773
882661884,1.679432
882706004,1.614122
882747043,1.638292
882789057,1.639098
882829816,1.645544
882872730,1.631847
882920192,1.619762
882963153,1.666541
883039986,1.583507
883082292,1.563365
883128217,2.162939
883172605,1.668153
883216266,1.742275
883259645,1.781753
883304241,1.829288
883346198,1.793838
883388541,1.67621
883433498,1.67057
883484701,1.689906
883527668,1.682655
883570674,1.677821
883612732,1.673793
883658441,1.67621
883705357,1.663319
883788920,1.625402
883835039,1.598814
883879497,1.573838
883927088,1.693129
883973314,1.788199
884020139,1.831705
884065619,1.832511
884111188,1.75436
884157050,1.631041
884206262,1.672987
884252116,1.660902
884300781,1.625402
884348919,1.635875
884394682,1.619762
884441819,1.630236
884487128,1.817203
884564734,1.558531
884610241,2.062179
884657726,1.597203
884705069,1.689101
884752600,1.786587
884798178,1.794644
884847423,1.669764
884894881,1.589952
884941076,1.604454
884989377,1.632653
885037592,1.595592
885086882,1.614928
885134690,1.602843
885184684,1.585118
885232885,1.715688
885281854,1.60526
885367199,2.55057
885417542,1.499716
885462925,1.682655
885514551,1.762417
885562975,1.793033
885612767,1.743081
885667171,1.616539
885717849,1.622179
885768562,1.678627
885817723,1.619762
885869302,1.632653
885918011,1.595592
885970450,1.639098
886021699,1.833316
886073882,1.555308
886124267,1.689906
886209922,1.665736
886260091,1.714882
886308473,1.81398
886357962,1.783365
886405454,1.633458
886457628,1.611705
886508393,1.67621
886558877,1.685072
886610626,1.689906
886663541,1.67057
886713155,1.681849
886764753,1.679432
886814630,1.747915
886866514,1.618956
886916830,1.574644
886969020,0.8550241
887060739,1.72455
887109047,1.846207
887160398,1.845402
887210468,1.695546
887263148,1.611705
887316092,1.658485
887367223,1.637487
887420285,1.590758
887473230,1.606871
887524789,1.622985
887578471,1.622985
887630047,1.769668
887682800,1.577061
887733199,1.503745
887784082,1.048437
887838013,1.70038
887927562,1.863983
887982595,1.787393
888034893,1.627819
888088998,1.628624
888143275,1.600426
888200257,1.602037
888254515,1.592369
888308707,1.619762
888360956,1.597203
888415421,1.633458
888466580,1.743886
888517702,1.540806
888572458,3.108249
888623844,1.588341
888677371,1.689101
888732857,1.789004
888828979,1.656873
888884274,1.558531
888939573,1.585924
888996556,1.584312
889048400,1.613317
889103710,1.584312
889157153,1.608482
889212776,1.756777
889266277,1.573033
889320287,1.753555
889374458,1.285356
889430477,1.710048
889484615,1.770474
889571156,1.760806
889604791,1.657679
889641913,1.608482
889709664,1.665736
889747279,1.666541
889781449,1.631847
889817701,1.615734
889851673,1.635875
889887648,1.653651
889920041,1.689101
889957766,1.837345
889992384,1.59962
890027293,1.602843
890060622,2.292703
890095762,0.9944059
890130572,1.696352
890165485,1.728579
890204051,1.792227
890240961,1.847013
890312248,1.748721
890347744,1.67057
890383512,1.618956
890417539,1.641515
890453019,1.665736
890491084,1.664124
890527799,1.636681
890563654,1.626207
890597597,1.634264
890632861,1.660096
890667650,1.632653
890702476,1.73019
890737215,1.744692
890771824,1.571421
890806645,1.537583
890842530,3.212987
890911206,1.63507
890947367,1.701991
890981860,1.721328
891017948,1.79545
891053779,1.802701
891090032,1.677015
891128050,1.57545
891167218,1.562559
891206873,1.590758
891243100,1.557725
891281139,1.541611
891321018,1.522275
891360370,1.521469
891400175,1.516635
891439847,1.530332
891476161,1.711659
891550889,1.477963
891590241,2.026729
891630305,0.9766811
891667613,1.550474
891706705,1.627819
891745400,1.678627
891784646,1.718105
891823369,1.677015
891862415,1.569004
891900035,1.505356
891937887,1.518247
891977325,1.554502
892015269,1.561753
892056579,1.550474
892094478,1.544834
892132354,1.580284
892204934,1.780948
892245184,1.548862
892288002,1.579478
892326156,3.167869
892364033,1.197487
892402831,1.685878
892443201,1.762417
892487524,1.84379
892529935,1.859954
892569208,1.793033
892608488,1.705214
892651277,1.73019
892693391,1.738247
892732916,1.728579
892775870,1.715688
892817103,1.677015
892896019,1.718105
892937773,1.786587
892979471,1.689101
893021211,1.643932
893062826,2.489338
893104264,1.211183
893144319,1.735024
893185958,1.808341
893229961,1.887347
893272107,1.897015
893312765,1.78981
893353573,1.697157
893395995,1.65929
893438309,1.685878
893483008,1.67057
893525300,1.647155
893602864,1.63507
893643366,1.647961
893688291,1.681044
893733369,1.782559
893779756,1.643932
893821750,1.594786
893863833,2.321707
893906954,1.311138
893951021,1.722133
893993496,1.770474
894037667,1.836539
894083074,1.850236
894127030,1.721328
894170251,1.636681
894211906,1.639098
894257200,1.627013
894338331,1.609288
894380426,1.589146
894424609,1.631847
894468354,1.660096
894516773,1.680238
894562010,1.769668
894610638,1.583507
894656561,1.786587
894701217,1.113696
894746779,1.668153
894793477,1.755972
894836463,1.79545
894885514,1.835733
894930350,1.677015
894976330,1.583507
895026214,1.616539
895105580,1.597203
895153238,1.594786
895200820,1.569004
895249583,1.617345
895296848,1.685878
895346488,1.606871
895394856,1.558531
895445324,2.657725
895493775,1.619762
895546427,1.731801
895596751,1.781753
895642052,1.809952
895691160,1.702797
895736628,1.596397
895785872,1.633458
895835272,1.637487
895921161,1.598814
895968909,1.632653
896018718,1.615734
896066731,1.76
896116460,1.564976
896164699,1.518247
896215054,1.1
896261651,1.663319
896312246,1.773697
896360842,1.812369
896407592,1.823648
896455968,1.672987
896504591,1.639904
896554396,1.686683
896605384,1.672987
896652427,1.640709
896733191,1.651234
896782560,1.741469
896831005,1.628624
896881813,1.558531
896931949,1.261186
896980233,1.633458
897028779,1.739052
897079044,1.809952
897132693,1.842985
897188505,1.658485
897241107,1.624596
897289937,1.664124
897341913,1.619762
897393014,1.614928
897446534,1.622179
897497200,1.712465
897586414,1.56417
897637389,2.469146
897690586,1.652039
897740230,1.710048
897788283,1.812369
897841713,1.822843
897891613,1.682655
897942030,1.573838
897994472,1.627819
898047608,1.611705
898098845,1.584312
898152863,1.608482
898207541,1.709242
898258213,1.565782
898311453,1.556113
898361956,1.42071
898447821,1.666541
898500107,1.73019
898552948,1.769668
898603920,1.589952
898654103,1.562559
898707190,1.590758
898761745,1.53436
898814142,1.518247
898868912,1.537583
898922290,1.627819
898977607,1.47474
899031035,1.498105
899086448,1.026633
899139511,1.598814
899192837,1.73019
899244402,1.769668
899339631,1.602843
899392557,1.661707
899445650,1.662513
899498065,1.632653
899553208,1.643932
899634999,1.863177
899672110,1.588341
899706589,1.589952
899738931,2.156493
899773097,0.9315633
899804607,1.652845
899837259,1.713271
899870299,1.788199
899907043,1.847819
899942161,1.833316
899976384,1.79545
900041126,1.639098
900076596,1.654456
900110003,1.701991
900145060,1.67621
900179067,1.666541
900214969,1.636681
900249999,1.653651
900284305,1.738247
900320932,1.831705
900356395,1.553697
900389571,1.562559
900427013,2.647251
900460774,0.9629847
900495215,1.641515
900532604,1.731801
900569885,1.783365
900644460,1.827677
900679219,1.683461
900714062,1.627819
900752444,1.632653
900790416,1.63507
900829700,1.643932
900868570,1.642321
900902557,1.606065
900938708,1.652845
900975730,1.859149
901014505,1.544028
901048846,1.563365
901083125,1.950996
901122188,0.9734585
901161600,1.626207
901198676,1.708437
901267580,1.829288
901303438,1.806729
901341182,1.689101
901378763,1.601231
901416574,1.621373
901457676,1.639904
901497443,1.628624
901533550,1.616539
901569877,1.628624
901607861,1.814786
901649665,1.472323
901687021,1.459432
901724437,2.807631
901763237,0.9009476
901804357,1.469906
901849973,1.539194
901929912,1.544834
901969422,1.432795
902009003,1.354644
902051847,1.34417
902093284,1.365118
902131842,1.321611
902172111,1.282939
902211664,1.37962
902252829,1.317583
902294311,1.201515
902335474,1.339336
902375810,0.6704738
902417001,1.287773
902457070,1.369952
902496409,1.446541
902538715,1.50455
902617351,1.434406
902657967,1.432795
902698859,1.486825
902739729,1.517441
902782313,1.487631
902825024,1.541611
902869745,1.805118
902912651,1.51583
902956296,1.51583
902997827,2.175024
903043010,1.634264
903086557,1.764028
903129941,1.848624
903173291,1.903461
903216938,1.840568
903260547,1.75436
903342918,1.78417
903384984,1.813175
903427099,1.809952
903471577,1.790616
903513732,1.786587
903558212,1.799478
903600707,1.90185
903645243,1.772891
903689620,1.776919
903732680,3.232323
903775812,1.772891
903820839,1.85507
903869444,1.969526
903913867,2.009004
903958536,1.956635
904003426,1.81398
904081340,1.790616
904126474,1.779336
904171675,1.760806
904214117,1.730996
904263210,1.734219
904307688,1.748721
904354041,1.756777
904405701,1.763223
904454754,1.87929
904500156,1.685072
904546866,2.085594
904594647,1.245878
904640968,1.771279
904690575,1.852653
904738819,1.854264
904787961,1.840568
904875961,1.687489
904926228,1.708437
904975134,1.697157
905021685,1.672181
905068362,1.672181
905113959,1.756777
905162423,1.614122
905210229,1.622985
905254736,2.748011
905302899,1.610899
905353782,1.718105
905399914,1.764834
905449993,1.792227
905496542,1.696352
905545319,1.645544
905590626,1.674598
905673704,1.622985
905722857,1.582701
905769888,1.59398
905818716,1.830899
905865834,1.531943
905915242,1.548057
905965217,1.01052
906013904,1.631041
906062577,1.685878
906111989,1.766445
906159434,1.714076
906211128,1.620568
906261366,1.589952
906311628,1.626207
906362022,1.593175
906412453,1.595592
906504591,1.815592
906558521,1.506967
906610408,1.886541
906659209,1.257157
906710051,1.663319
906760982,1.731801
906813228,1.79545
906862599,1.672987
906914234,1.607677
906965682,1.642321
907017335,1.603648
907067489,1.631041
907115760,1.627819
907169320,1.736635
907217917,1.574644
907269753,1.56981
907355985,1.619762
907408594,1.730996
907460223,1.814786
907514209,1.826871
907568224,1.685072
907616681,1.627819
907669171,1.668153
907719967,1.628624
907770937,1.647961
907823846,1.608482
907877192,1.698769
907928556,1.505356
907979064,2.872085
908031708,1.531138
908084949,1.552891
908136106,1.611705
908231201,1.486825
908280394,1.392511
908335894,1.41507
908388927,1.413458
908443595,1.37398
908494484,1.465878
908545555,1.495688
908596607,1.345782
908652622,2.345072
908704338,1.435212
908756939,1.556113
908809638,1.672987
908863559,1.66493
908917986,1.560948
908974160,1.627013
909029945,1.643932
909115655,1.621373
909170943,1.818009
909224375,1.583507
909276044,1.54564
909331168,1.12981
909388002,1.776114
909444874,1.878485
909500326,1.921991
909556222,1.783365
909611871,1.774502
909664169,1.808341
909718171,1.798673
909772029,1.801895
909855014,2.017867
909890805,1.721328
909924745,1.701991
910000179,1.244266
910031650,1.79545
910067114,1.867205
910100744,1.895404
910135775,1.93891
910173197,1.962275
910209902,1.839762
910245426,1.743081
910277543,1.710854
910312371,1.747915
910349310,1.742275
910386464,1.70602
910425027,1.65929
910463163,1.718105
910498289,1.856732
910535073,1.529526
910605772,2.293509
910646030,1.018576
910681428,1.516635
910716058,1.593175
910753176,1.645544
910790808,1.690712
910827421,1.643932
910862723,1.494076
910897057,1.447347
910932434,1.45057
910967673,1.454598
911005160,1.448153
911042308,1.426349
911077603,1.469906
911113852,1.691517
911149342,1.390094
911226597,2.596493
911265741,0.9065874
911302976,1.483603
911339876,1.562559
911376728,1.627819
911415781,1.66493
911458738,1.610899
911499418,1.552085
911536185,1.589952
911572930,1.620568
911614216,1.631041
911652893,1.62943
911690482,1.661707
911729858,1.885736
911769532,1.585924
911809464,1.593175
911881468,1.02905
911919571,1.689101
911957765,1.755166
911996380,1.833316
912036231,1.868011
912074027,1.832511
912113786,1.753555
912154864,1.747109
912194058,1.762417
912232544,1.774502
912270997,1.764834
912312168,1.739052
912353315,1.826871
912393757,1.976777
912435195,1.666541
912475946,1.67621
912555433,1.677015
912598068,1.780948
912639314,1.82526
912683143,1.872845
912724247,1.850236
912765280,1.728579
912806617,1.685072
912849041,1.693934
912887248,1.685878
912927743,1.664124
912969521,1.684266
913010991,1.677015
913052663,1.664124
913093317,1.763223
913137969,1.630236
913180782,1.573033
913254812,0.937203
913296562,1.677821
913340192,1.709242
913386094,1.781753
913428909,1.815592
913474019,1.701991
913518975,1.586729
913563034,1.624596
913606976,1.672181
913652568,1.632653
913694552,1.606871
913741512,1.596397
913785306,1.686683
913830514,1.73583
913880224,1.553697
913926352,2.613413
914010154,1.669764
914054260,1.738247
914101109,1.743886
914146452,1.76
914192959,1.663319
914239300,1.653651
914289003,1.658485
914335311,1.660096
914384375,1.613317
914431798,1.592369
914475886,1.710854
914521933,1.653651
914566229,1.506967
914614003,2.230616
914660515,1.155592
914705063,1.54564
914782616,1.614122
914828952,1.597203
914873587,1.499716
914920350,1.432795
914964335,1.449764
915011429,1.476351
915055741,1.434406
915104799,1.4336
915151330,1.465878
915195164,1.606871
915239819,1.477157
915287390,1.402985
915333262,3.143699
915381284,1.477963
915427376,1.612511
915476979,1.708437
915562212,1.747915
915608828,1.62943
915657946,1.644738
915704465,1.652845
915753380,1.677821
915800258,1.677821
915849285,1.701991
915899439,1.697963
915950815,1.831705
916000324,1.668153
916046723,1.708437
916096589,1.848624
916145087,1.774502
916195827,1.850236
916243288,1.940522
916292554,1.963081
916371610,1.772891
916420217,1.78417
916468510,1.812369
916514081,1.790616
916563380,1.756777
916611021,1.776919
916661088,1.97436
916711041,1.697963
916763009,1.950996
916813608,1.218434
916865552,1.748721
916917709,1.785782
916965018,1.802701
917015422,1.697963
917064189,1.589146
917113623,1.607677
917203330,1.526304
917254053,1.523081
917302454,1.509384
917350613,1.743886
917398041,1.415876
917451335,1.577061
917501202,0.9734585
917554582,1.551279
917604986,1.625402
917657246,1.656873
917707577,1.593175
917762622,1.512607
917812953,1.568199
917865231,1.558531
917915939,1.552891
917971409,1.597203
918058179,1.835733
918107598,1.571421
918158985,1.776114
918210334,1.431183
918263309,1.741469
918319167,1.846207
918372343,1.893793
918425777,1.756777
918478441,1.693129
918529347,1.732607
918581585,1.693934
918632457,1.716493
918687886,1.705214
918744619,1.71891
918798679,1.76
918851041,1.657679
918945056,1.691517
918997525,1.790616
919052246,1.876068
919104722,1.872039
919155309,1.728579
919210056,1.673793
919264031,1.695546
919318191,1.658485
919370570,1.654456
919424994,1.647961
919478098,1.859954
919532998,1.580284
919586872,2.048482
919643606,1.562559
919699239,1.685878
919753083,1.788199
919841669,1.712465
919896356,1.644738
919951702,1.69474
920007527,1.651234
920064840,1.637487
920149359,1.734219
920187151,1.811563
920225844,1.560948
920257932,1.560948
920291889,2.750428
920329086,1.044408
920365001,1.651234
920398746,1.703603
920432665,1.771279
920465229,1.785782
920499473,1.78417
920575163,1.643127
920611534,1.63507
920647865,1.652845
920682368,1.644738
920717224,1.606065
920751873,1.619762
920787117,1.613317
920825670,1.611705
920861286,1.695546
920894747,1.847819
920930056,1.554502
920967198,1.542417
921009286,3.170286
921048162,1.289384
921084011,1.647155
921119764,1.718105
921192256,1.833316
921229657,1.79545
921265685,1.668153
921303506,1.595592
921341498,1.613317
921377949,1.635875
921414496,1.607677
921451016,1.614928
921487611,1.600426
921525997,1.606065
921562382,1.607677
921599014,1.652845
921639253,1.78417
921679571,1.538389
921716818,1.548862
921756160,2.58038
921832321,1.698769
921871441,1.753555
921908810,1.800284
921948102,1.824454
921985556,1.739052
922025324,1.639904
922063369,1.607677
922102988,1.637487
922142967,1.650428
922184228,1.602037
922223938,1.581089
922264304,1.560948
922305031,1.529526
922345854,1.647155
922383375,1.446541
922422404,1.388482
922497114,0.8558297
922537032,1.384454
922579536,1.442463
922618705,1.491659
922659731,1.47474
922699925,1.434406
922738477,1.336919
922777401,1.30872
922819008,1.339336
922865569,1.334502
922908525,1.328057
922950900,1.341753
922991629,1.345782
923033069,1.3909
923074511,1.556919
923116913,1.357867
923194119,2.437725
923238214,1.191041
923279290,1.581895
923322679,1.671376
923369815,1.782559
923411289,1.793838
923452978,1.70038
923497171,1.640709
923541443,1.679432
923584326,1.705214
923630247,1.713271
923674120,1.721328
923721032,1.695546
923765922,1.748721
923812401,1.842179
923857476,1.737441
923933809,2.302371
923977688,1.329668
924019617,1.842179
924065286,1.942133
924109713,2.040426
924152460,2.005782
924197729,1.863177
924244369,1.793033
924287167,1.831705
924331806,1.822843
924375782,1.802701
924420952,1.747109
924463332,1.732607
924508740,1.742275
924554060,1.938105
924596477,1.632653
924681266,2.528817
924726617,1.673793
924770244,1.753555
924816382,1.782559
924860167,1.805923
924905742,1.742275
924950059,1.674598
924995035,1.665736
925043342,1.658485
925086588,1.655262
925133634,1.647155
925180609,1.634264
925225962,1.65929
925275336,1.740664
925324764,1.668153
925374818,1.576255
925451299,1.09436
925499422,1.683461
925546480,1.767251
925595797,1.856732
925640581,1.803506
925687541,1.65929
925732513,1.651234
925779497,1.667347
925824860,1.672987
925869729,1.664124
925917092,1.638292
925962009,1.63507
926010272,1.681044
926058576,1.911517
926107081,1.608482
926156209,1.548862
926248161,1.729384
926296226,1.78981
926341824,1.842985
926390856,1.859954
926437854,1.665736
926484055,1.624596
926532474,1.637487
926580155,1.635875
926626974,1.657679
926673128,1.636681
926720376,1.613317
926770025,1.634264
926819977,1.715688
926871477,1.584312
926921786,1.493271
926972123,1.018576
927056976,1.544834
927110094,1.611705
927158346,1.526304
927208582,1.34981
927257139,1.236965
927309069,1.228103
927357940,1.174122
927407017,1.137867
927456775,1.097583
927506486,1.098389
927557133,1.177345
927610302,1.113696
927661762,1.055688
927711000,1.203932
927762175,1.118531
927814103,1.225685
927902620,1.394928
927952805,1.332085
928006430,1.336919
928059979,1.408624
928112191,1.478769
928161616,1.470712
928214634,1.52872
928263908,1.557725
928317188,1.744692
928367945,1.653651
928418773,1.650428
928470999,1.26038
928523434,1.81398
928576818,1.950996
928625758,2.073509
928678405,2.038814
928765277,1.888959
928818679,1.934882
928871149,1.940522
928925128,1.942939
928978361,1.935688
929029768,2.005782
929082370,2.071092
929135615,1.954218
929189296,1.897821
929245107,1.120142
929300986,1.977583
929354134,2.063035
929409407,2.121044
929464418,2.000142
929517118,1.859149
929569683,1.868011
929663756,1.818009
929718585,1.806729
929772616,1.816397
929826628,1.885736
929879100,1.683461
929931500,1.63507
929987043,1.175734
930039422,1.747109
930094731,1.839762
930147091,1.859954
930200658,1.715688
930252639,1.643932
930307761,1.668153
930366319,1.660902
930448979,1.631847
930481531,1.614928
930549658,1.70038
930589820,1.62379
930627126,1.57545
930661197,1.531138
930695471,1.440046
930734203,1.603648
930771492,1.67057
930804568,1.732607
930842233,1.787393
930878251,1.775308
930911997,1.734219
930946711,1.639904
930982802,1.583507
931017698,1.614122
931052351,1.63507
931087105,1.637487
931160407,1.602037
931197362,1.609288
931235995,1.622985
931271474,1.755972
931306021,1.73583
931340591,1.548862
931377808,1.57545
931415282,3.117111
931451629,1.462655
931489440,1.699574
931527530,1.749526
931562915,1.797867
931602649,1.840568
931640045,1.771279
931679778,1.646349
931717764,1.581089
931786630,1.657679
931824852,1.641515
931861501,1.620568
931896519,1.635875
931933414,1.638292
931972140,1.624596
932011031,1.740664
932049920,1.790616
932087200,1.560948
932125988,1.560948
932165078,2.839052
932202630,1.60526
932240409,1.692323
932279989,1.748721
932322210,1.815592
932362896,1.822037
932444296,1.595592
932483863,1.600426
932523890,1.614928
932563964,1.620568
932606114,1.596397
932645006,1.594786
932688367,1.603648
932728723,1.642321
932770349,1.81962
932816646,1.555308
932857445,1.482797
932898417,1.26602
932939089,1.587535
932982212,1.698769
933022380,1.764834
933066349,1.814786
933142872,1.654456
933189151,1.611705
933232475,1.646349
933278259,1.632653
933320371,1.612511
933360426,1.602843
933402817,1.618956
933442960,1.614928
933487021,1.81962
933528638,1.560948
933571401,1.544834
933615732,2.449004
933661262,1.560142
933702084,1.595592
933745022,1.652845
933786189,1.686683
933870745,1.518247
933914263,1.466683
933956942,1.452181
934000801,1.56417
934042292,1.35545
934086110,1.340948
934127752,1.357867
934171887,1.404596
934215971,1.50455
934258283,1.286162
934302617,1.2491
934344553,0.7268711
934386356,1.421515
934432026,1.506967
934474003,1.606065
934519006,1.643127
934596634,1.51019
934639789,1.523081
934686273,1.590758
934733894,1.602843
934781756,1.602037
934825019,1.637487
934871936,1.657679
934917429,1.781753
934964494,1.631847
935007883,1.656873
935054105,2.243506
935100188,1.708437
935144619,1.812369
935189302,1.892181
935232529,1.930048
935278910,1.859149
935364314,1.76
935410823,1.82526
935458863,1.812369
935505476,1.800284
935552663,1.809146
935602141,1.803506
935649182,1.857537
935692985,1.975166
935741872,1.731801
935789084,1.935688
935836792,1.336919
935884298,1.821231
935930192,1.885736
935974589,1.934882
936020656,1.915546
936067029,1.748721
936148541,1.716493
936195515,1.702797
936244267,1.684266
936290524,1.663319
936338034,1.637487
936386842,1.768057
936438272,1.627013
936483892,1.56417
936529606,3.205736
936575376,1.594786
936624801,1.714882
936671207,1.801089
936720673,1.79545
936765261,1.709242
936812826,1.588341
936862037,1.560948
936952027,1.580284
937002831,1.552085
937050712,1.586729
937100807,1.585118
937148919,1.828483
937195618,1.54564
937244822,1.59962
937297311,1.000851
937348051,1.651234
937396300,1.722133
937445918,1.756777
937496573,1.689906
937542626,1.637487
937590512,1.657679
937638246,1.654456
937686903,1.686683
937770971,1.628624
937822400,1.76
937874165,1.601231
937922380,1.608482
937974165,1.735024
938025671,1.602843
938077316,1.672987
938130476,1.745498
938183791,1.707631
938234073,1.658485
938282766,1.606065
938333244,1.654456
938385586,1.645544
938439084,1.655262
938494137,1.758389
938547385,1.634264
938640071,2.882559
938693715,1.490854
938748298,1.560948
938799467,1.53436
938850468,1.517441
938903023,1.544834
938956063,1.574644
939006887,1.674598
939059949,1.655262
939109692,1.651234
939161048,1.685878
939214659,1.805118
939266505,1.614928
939320004,3.09128
939370204,1.71891
939421938,1.750332
939510000,1.824454
939566931,1.766445
939619264,1.751138
939671230,1.750332
939724457,1.721328
939782559,1.689906
939835959,1.655262
939889785,1.642321
939941625,1.643127
939997112,1.848624
940054607,1.592369
940107546,3.149338
940162252,1.627819
940217266,1.72455
940272607,1.788199
940326236,1.781753
940421927,1.655262
940475446,1.645544
940530894,1.627013
940584119,1.621373
940637660,1.614928
940693102,1.631041
940750495,1.848624
940831839,1.615734
940865593,2.764124
940900964,1.103223
940936534,1.668153
940972028,1.731801
941007839,1.78417
941043598,1.824454
941077854,1.776114
941115468,1.710048
941186584,1.640709
941224590,1.647155
941259613,1.640709
941294895,1.628624
941331298,1.60526
941366242,1.614928
941399563,1.59398
941436446,1.59398
941473344,1.651234
941509218,1.85507
941546055,1.549668
941581133,1.555308
941618017,2.576352
941654960,1.072607
941689533,1.658485
941724330,1.715688
941802311,1.815592
941842408,1.815592
941879709,1.690712
941918048,1.617345
941956497,1.634264
941993670,1.644738
942031164,1.654456
942068431,1.610094
942103848,1.597203
942143831,1.586729
942183558,1.625402
942222595,1.711659
942265560,1.570616
942306935,1.568199
942345495,3.135642
942384652,1.258769
942456343,1.725356
942495238,1.802701
942538026,1.814786
942578852,1.732607
942621691,1.621373
942662390,1.600426
942704624,1.619762
942744274,1.60526
942781913,1.593175
942821804,1.592369
942859732,1.59398
942901327,1.699574
942941439,1.685878
942982491,1.554502
943022571,1.654456
943064868,1.2491
943144157,1.709242
943186659,1.768862
943227948,1.84379
943269218,1.775308
943307215,1.679432
943348686,1.655262
943388366,1.633458
943427814,1.654456
943469545,1.643127
943508043,1.645544
943549392,1.665736
943591711,1.853458
943631354,1.560948
943674362,1.571421
943715735,2.121044
943755592,1.607677
943836796,1.746303
943877739,1.813175
943920620,1.796255
943961447,1.66493
944002472,1.62943
944046773,1.689906
944092049,1.644738
944143724,1.62943
944184467,1.618956
944228530,1.643127
944271430,1.852653
944316536,1.54564
944358344,1.556113
944400849,2.055733
944441706,1.596397
944484563,1.697963
944566205,1.828483
944608668,1.805923
944652791,1.602843
944695417,1.591563
944736453,1.628624
944782218,1.57545
944825795,1.616539
944869649,1.632653
944916125,1.614928
944961111,1.718105
945003408,1.641515
945047299,1.561753
945089234,2.786683
945134369,1.457015
945179478,1.666541
945222107,1.822843
945296941,1.852653
945339517,1.689906
945384465,1.601231
945430336,1.620568
945476530,1.615734
945524172,1.654456
945572227,1.638292
945620202,1.618151
945664990,1.63507
945714291,1.621373
945758839,1.658485
945805310,1.683461
945849952,1.75436
945898203,1.643932
945943294,1.638292
945990546,3.221044
946075163,1.714882
946120633,1.767251
946165905,1.85507
946216159,1.845402
946263551,1.639098
946309463,1.625402
946357234,1.641515
946403228,1.609288
946449583,1.600426
946497319,1.608482
946547974,1.587535
946597596,1.593175
946645476,1.607677
946692043,1.637487
946741023,1.631041
946785944,1.666541
946869923,1.618151
946916694,2.970428
946962543,1.429572
947009575,1.725356
947058866,1.821231
947107238,1.891376
947152029,1.776114
947201531,1.622179
947248574,1.635875
947296564,1.631041
947346431,1.651234
947396373,1.587535
947445474,1.626207
947491077,1.619762
947539479,1.619762
947589587,1.651234
947679490,1.658485
947733302,1.776919
947784295,1.679432
947834049,3.037299
947885414,1.699574
947937560,1.774502
947986052,1.851041
948036657,1.904266
948088689,1.706825
948139844,1.59398
948191103,1.611705
948241382,1.607677
948288413,1.618151
948335390,1.643932
948384228,1.646349
948433065,1.668153
948518707,1.661707
948568437,1.643932
948616663,1.624596
948666440,1.593175
948720485,1.465072
948770804,1.081469
948820928,1.654456
948873230,1.73583
948930524,1.808341
948983064,1.674598
949033950,1.52872
949085042,1.503745
949139594,1.542417
949192016,1.566587
949244441,1.541611
949297408,1.548057
949392346,1.59398
949445304,1.614122
949498746,1.622985
949552178,1.634264
949603890,1.576255
949655826,1.122559
949709517,1.689101
949761097,1.779336
949812895,1.859149
949866824,1.820426
949922568,1.614122
949976608,1.573033
950027947,1.67057
950082048,1.598814
950135441,1.608482
950191358,1.652039
950277569,1.663319
950332128,1.747915
950385220,1.646349
950441802,1.531138
950496898,1.125782
950554334,1.704408
950609054,1.818009
950665741,1.85507
950720876,1.689101
950776325,1.618151
950828190,1.672181
950881803,1.645544
950937424,1.646349
950992814,1.622179
951048275,1.647155
951134161,1.671376
951208603,1.671376
951242346,1.611705
951276097,1.586729
951311987,1.25474
951351282,1.612511
951386441,1.722939
951423704,1.771279
951459309,1.816397
951495470,1.859954
951531676,1.792227
951567820,1.673793
951602224,1.619762
951641392,1.611705
951677410,1.596397
951714948,1.640709
951758953,1.636681
951832658,1.620568
951872260,1.660096
951907915,1.622985
951945770,1.634264
951981787,1.697157
952021411,1.598009
952060090,1.576255
952101936,2.191138
952140756,1.083886
952181993,1.651234
952219002,1.693934
952254856,1.775308
952293025,1.831705
952327982,1.839762
952367780,1.692323
952405074,1.639904
952481858,1.628624
952521150,1.643932
952560175,1.627013
952595964,1.622179
952634434,1.624596
952672384,1.62379
952710460,1.67057
952749795,1.643932
952789749,1.78981
952826364,1.640709
952861039,1.580284
952900582,1.929242
952940050,1.083886
952979947,1.65929
953019777,1.697157
953057852,1.769668
953133543,1.809146
953171124,1.692323
953211616,1.602843
953251718,1.600426
953287611,1.663319
953327718,1.612511
953366048,1.621373
953404390,1.610899
953447024,1.586729
953491700,1.592369
953534506,1.685878
953573932,1.63507
953615588,1.543223
953657231,1.614122
953700379,1.01052
953739844,1.632653
953819680,1.782559
953861446,1.842179
953903479,1.787393
953943080,1.638292
953981903,1.602037
954024192,1.622985
954063149,1.619762
954103538,1.619762
954147372,1.581089
954189848,1.561753
954232667,1.589952
954278243,1.54564
954321099,1.735024
954362306,1.458627
954406721,1.436017
954449517,1.121753
954527708,1.595592
954571030,1.624596
954612777,1.685072
954654558,1.685072
954696541,1.471517
954738481,1.421515
954782155,1.470712
954822860,1.484408
954869482,1.48602
954911493,1.482797
954958435,1.486825
955001759,1.523886
955047571,1.726162
955088740,1.471517
955132298,1.448958
955173834,1.544834
955259229,1.701991
955302349,1.727773
955347473,1.831705
955390532,1.796255
955435707,1.646349
955477805,1.628624
955524641,1.735024
955571340,1.704408
955613904,1.689101
955659516,1.71891
955704190,1.697157
955748716,1.764834
955792805,1.831705
955841645,1.67057
955889344,2.249952
955934802,1.258769
956013601,1.847819
956060862,1.899432
956104099,1.969526
956151023,1.792227
956194846,1.697157
956239460,1.699574
956286671,1.726162
956333643,1.674598
956381018,1.691517
956426657,1.663319
956474319,1.677821
956519567,1.763223
956566979,1.715688
956615862,1.609288
956664802,2.332987
956710916,1.638292
956797382,1.783365
956842571,1.848624
956889860,1.801089
956937452,1.618151
956986991,1.650428
957036766,1.646349
957084845,1.620568
957133382,1.622179
957183741,1.624596
957230530,1.665736
957277418,1.710048
957325900,1.631847
957372609,1.589952
957421484,3.042939
957470354,1.640709
957515817,1.685072
957596394,1.809146
957644638,1.812369
957694162,1.653651
957743446,1.597203
957791006,1.645544
957838665,1.600426
957886432,1.63507
957937894,1.622179
957983515,1.60526
958030630,1.703603
958079667,1.566587
958133618,1.539194
958183792,1.140284
958233324,1.657679
958281306,1.736635
958334495,1.780142
958424910,1.67057
958477195,1.644738
958525555,1.660096
958576729,1.602037
958626987,1.635875
958679346,1.653651
958731235,1.658485
958782969,1.726162
958832118,1.580284
958883681,1.541611
958933267,0.9944059
958985145,1.639904
959037088,1.581895
959090761,1.769668
959141152,1.727773
959191873,1.561753
959280822,1.555308
959331140,1.530332
959384516,1.548862
959436128,1.529526
959489041,1.539194
959540245,1.621373
959592395,1.477963
959645401,1.44493
959701203,1.005685
959754068,1.618956
959806978,1.727773
959860092,1.769668
959912047,1.674598
959962180,1.614928
960015103,1.622179
960069013,1.647155
960160968,1.602843
960214864,1.622985
960270343,1.674598
960325900,1.863177
960378147,1.589952
960430649,1.593175
960485183,1.179762
960541911,1.733413
960595568,1.811563
960651446,1.85507
960707666,1.70038
960762669,1.685072
960817653,1.715688
960872744,1.699574
960925952,1.677015
960984983,1.67057
961076321,1.70038
961132142,1.695546
961190829,1.622179
961248154,1.026633
961305073,1.73583
961361790,1.790616
961419276,1.81398
961508357,1.660902
961545208,1.618956
961583981,1.637487
961620983,1.652039
961659002,1.612511
961696300,1.631041
961729878,1.654456
961765725,1.618151
961799590,1.625402
961878317,1.880096
961913668,1.566587
961947060,1.541611
961985140,1.889764
962023116,0.974264
962059819,1.653651
962096483,1.677821
962133482,1.732607
962170523,1.841373
962205860,1.847819
962243119,1.70602
962280563,1.631847
962315732,1.595592
962353074,1.609288
962390490,1.631041
962425898,1.618151
962500102,1.594786
962535942,1.588341
962574130,1.634264
962612036,1.695546
962648706,1.651234
962688181,1.584312
962724847,1.526304
962763340,1.374786
962800233,1.621373
962836800,1.657679
962878212,1.748721
962920451,1.809146
962959687,1.782559
962996790,1.684266
963034963,1.622179
963074027,1.650428
963153134,1.661707
963192537,1.657679
963232034,1.618956
963271457,1.641515
963312535,1.643932
963350528,1.65929
963386755,1.853458
963428233,1.580284
963466410,1.609288
963505341,2.906779
963547966,1.396539
963587079,1.674598
963627501,1.766445
963671039,1.81398
963713474,1.835733
963751926,1.692323
963826751,1.609288
963865689,1.621373
963905953,1.650428
963947128,1.630236
963985846,1.638292
964024528,1.622985
964063552,1.638292
964102274,1.660902
964143896,1.788199
964185461,1.638292
964228652,1.574644
964268999,3.216209
964311345,1.440851
964351689,1.696352
964395654,1.717299
964435866,1.780948
964519402,1.66493
964558733,1.609288
964602941,1.644738
964643003,1.652845
964685859,1.672987
964726129,1.655262
964767123,1.651234
964809986,1.650428
964854612,1.682655
964897851,1.600426
964939561,1.581089
964983188,3.149338
965024941,1.282939
965066949,1.679432
965110496,1.742275
965156955,1.770474
965236256,1.656873
965280031,1.582701
965322434,1.620568
965368114,1.672181
965408970,1.606065
965453193,1.583507
965495677,1.57545
965538198,1.66493
965582989,1.576255
965627863,1.519052
965671989,3.223461
965714128,1.479574
965758428,1.677015
965801184,1.736635
965845362,1.85507
965891638,1.776114
965980279,1.609288
966025824,1.685878
966069479,1.641515
966113894,1.592369
966160092,1.619762
966205975,1.874456
966253207,1.546445
966300132,1.476351
966346231,1.124976
966396067,1.637487
966444206,1.713271
966488926,1.806729
966533709,1.757583
966580162,1.689906
966624989,1.641515
966671584,1.653651
966753222,1.633458
966796086,1.553697
966840698,1.693934
966885164,1.564976
966929829,1.502939
966976298,3.050996
967021668,1.360284
967066390,1.548862
967111935,1.616539
967162637,1.639098
967207756,1.573033
967252818,1.51019
967299954,1.471517
967351647,1.531943
967400028,1.499716
967446648,1.529526
967535564,1.587535
967586053,1.486825
967634545,2.399858
967684547,1.419098
967730303,1.601231
967778021,1.697157
967826079,1.740664
967875112,1.690712
967922599,1.611705
967968916,1.651234
968018364,1.651234
968064624,1.679432
968111154,1.639904
968157797,1.644738
968206615,1.770474
968255662,1.696352
968338679,1.852653
968385815,1.286967
968435834,1.796255
968485894,1.818814
968536624,1.89057
968586032,1.829288
968637312,1.663319
968685926,1.697963
968738168,1.695546
968787537,1.705214
968842529,1.656873
968892579,1.664124
968943797,1.918769
968995114,1.602037
969045918,1.892181
969094883,1.125782
969186915,1.794644
969238694,1.854264
969290360,1.760806
969340096,1.684266
969391817,1.66493
969443409,1.678627
969493776,1.633458
969544344,1.658485
969597076,1.710854
969652213,1.563365
969704064,1.567393
969758200,1.264408
969810714,1.637487
969863590,1.73019
969916851,1.755972
969971324,1.710854
970057148,1.650428
970112813,1.618151
970165412,1.611705
970218586,1.628624
970278454,1.739052
970333470,1.557725
970388672,1.530332
970441895,0.7961593
970495252,1.660096
970551396,1.723745
970605874,1.802701
970663323,1.774502
970717068,1.631041
970774956,1.634264
970830704,1.677821
970882989,1.643932
970978427,1.727773
971030031,1.56417
971086914,1.551279
971140871,0.9178667
971193068,1.622179
971249890,1.761611
971306545,1.827677
971359823,1.703603
971416609,1.624596
971472002,1.660902
971527696,1.685878
971583616,1.643127
971640884,1.620568
971696600,1.822037
971750339,1.587535
971836361,1.380426
971905039,1.697963
971940922,1.718105
971975867,1.780142
972010955,1.751943
972043746,1.760806
972076476,1.690712
972113886,1.643127
972148160,1.677821
972184547,1.693129
972219199,1.679432
972253749,1.646349
972292995,1.627013
972332108,1.638292
972371736,1.674598
972406886,1.868011
972444658,1.562559
972521308,2.762513
972559895,1.050854
972597132,1.637487
972634383,1.680238
972671762,1.73019
972709185,1.798673
972745137,1.757583
972779262,1.667347
972817085,1.596397
972853144,1.583507
972890241,1.664124
972929842,1.62943
972967905,1.618956
973005424,1.639098
973047529,1.625402
973087479,1.636681
973156433,1.794644
973193949,1.554502
973229434,1.556113
973267242,3.217821
973303015,1.236965
973340006,1.677015
973377093,1.704408
973414658,1.769668
973451323,1.79545
973490681,1.792227
973529976,1.672987
973571040,1.625402
973608772,1.662513
973648529,1.653651
973688488,1.631847
973729780,1.627819
973809533,1.635875
973849236,1.634264
973888268,1.826066
973930940,1.567393
973969347,1.593175
974007397,3.191234
974046704,1.226491
974085820,1.672987
974126961,1.71891
974170547,1.809146
974211616,1.822037
974251103,1.690712
974292626,1.618956
974334182,1.63507
974374125,1.641515
974413430,1.655262
974492524,1.641515
974535764,1.59962
974577475,1.634264
974616100,1.846207
974658346,1.581895
974697242,1.607677
974737787,3.159007
974778140,1.484408
974818461,1.672987
974861089,1.748721
974903772,1.79545
974945924,1.826871
974986989,1.713271
975029002,1.65929
975068700,1.653651
975110515,1.661707
975195413,1.63507
975240046,1.618956
975283785,1.62943
975323740,1.726162
975365705,1.719716
975409324,1.547251
975452715,1.773697
975498649,1.050048
975545322,1.665736
975586816,1.727773
975631813,1.792227
975678773,1.788199
975721127,1.684266
975766879,1.611705
975811147,1.667347
975855518,1.635875
975932801,1.614122
975976169,1.618151
976019000,1.696352
976061122,1.728579
976103163,1.627013
976147374,1.571421
976193793,3.200096
976235865,1.465072
976278901,1.642321
976321176,1.728579
976369378,1.816397
976412568,1.751943
976455557,1.600426
976501660,1.611705
976550576,1.588341
976595735,1.607677
976679696,1.596397
976724512,1.562559
976771631,1.693934
976815046,1.550474
976860254,1.566587
976903868,3.142087
976950280,1.609288
976994135,1.677015
977041172,1.758389
977087788,1.775308
977133182,1.732607
977178739,1.618151
977225947,1.660096
977271358,1.650428
977316961,1.616539
977363305,1.614928
977442908,1.628624
977487969,1.777725
977532280,1.677821
977577174,1.610094
977622932,2.304788
977669940,1.336919
977717269,1.725356
977765070,1.807535
977811104,1.826066
977858616,1.777725
977907351,1.687489
977956610,1.62943
978004077,1.674598
978051742,1.662513
978097625,1.628624
978144665,1.627013
978229615,1.711659
978275893,1.602843
978325410,1.580284
978373488,2.353935
978422892,1.638292
978472401,1.709242
978521925,1.783365
978568198,1.802701
978616427,1.685878
978666646,1.600426
978719052,1.625402
978765090,1.642321
978816833,1.606065
978864476,1.604454
978914971,1.609288
978965524,1.865594
979046226,1.585924
979092804,2.240284
979145283,1.628624
979195092,1.683461
979247192,1.797061
979301988,1.768862
979355103,1.656873
979406131,1.642321
979456350,1.645544
979509202,1.656873
979563409,1.63507
979616612,1.624596
979671888,1.723745
979723517,1.622179
979778158,1.536777
979830553,0.9662074
979921275,1.737441
979971638,1.780142
980022340,1.787393
980076529,1.67057
980131361,1.618956
980180836,1.620568
980233911,1.639904
980288673,1.624596
980339840,1.626207
980392781,1.677821
980444286,1.664124
980495642,1.548057
980547513,2.696448
980601575,1.634264
980653647,1.725356
980705460,1.785782
980789918,1.713271
980844140,1.636681
980898447,1.637487
980950715,1.628624
981005113,1.614928
981059251,1.59398
981110410,1.62943
981166251,1.606871
981216361,1.471517
981270311,2.456255
981323573,1.570616
981376847,1.641515
981434591,1.736635
981491331,1.633458
981548081,1.542417
981601534,1.568199
981698799,1.569004
981751506,1.590758
981807835,1.56981
981863459,1.668153
981918240,1.500522
981973850,1.466683
982028818,1.049242
982107145,1.697157
982142978,1.755166
982174178,1.811563
982207879,1.810758
982244991,1.717299
982280815,1.622985
982316974,1.609288
982355878,1.664124
982393565,1.646349
982459042,1.636681
982495171,1.625402
982529396,1.665736
982565624,1.660096
982600229,1.785782
982635344,1.628624
982670413,1.595592
982704017,1.593175
982741303,1.261991
982777432,1.641515
982812354,1.714076
982851091,1.793838
982885809,1.830094
982923215,1.863983
982957938,1.79545
982997080,1.701991
983072724,1.684266
983110201,1.725356
983146134,1.710048
983186740,1.691517
983223213,1.73583
983259665,1.679432
983296409,1.686683
983334699,1.773697
983373110,1.645544
983414203,1.600426
983451693,2.377299
983485939,1.054882
983523976,1.680238
983560917,1.70602
983595498,1.787393
983634272,1.830899
983708889,1.681849
983748007,1.621373
983784261,1.608482
983820373,1.606871
983860005,1.59962
983896282,1.567393
983933317,1.583507
983971095,1.600426
984008786,1.56981
984046741,1.589952
984087021,1.801089
984127159,1.498105
984163774,1.538389
984204852,2.887393
984243551,1.592369
984282370,1.658485
984364296,1.829288
984405691,1.834928
984445193,1.643932
984481965,1.631041
984519028,1.584312
984560224,1.628624
984600401,1.622179
984642768,1.615734
984685812,1.62943
984726082,1.619762
984770158,1.587535
984812826,1.717299
984851404,1.673793
984893626,1.578672
984935754,1.742275
984975641,0.9992401
985051700,1.729384
985091031,1.771279
985131563,1.830094
985171460,1.799478
985211261,1.657679
985253185,1.615734
985295654,1.651234
985335462,1.639904
985376668,1.62943
985417684,1.586729
985463862,1.619762
985503805,1.639904
985545111,1.838956
985588613,1.595592
985635889,1.523886
985678584,1.447347
985758094,1.709242
985797443,1.776919
985840663,1.864788
985883232,1.76564
985925877,1.622179
985967841,1.65929
986011144,1.666541
986052485,1.685878
986096389,1.654456
986138299,1.663319
986180275,1.647155
986223171,1.761611
986265848,1.582701
986308370,1.606065
986350349,3.166258
986394231,1.444124
986471196,1.743081
986513686,1.798673
986554491,1.834122
986599349,1.702797
986645193,1.619762
986690296,1.655262
986735413,1.628624
986780844,1.636681
986825255,1.633458
986871723,1.609288
986917205,1.710048
986964236,1.570616
987009557,1.569004
987055121,2.918059
987100741,1.656873
987144802,1.739052
987228509,1.806729
987272652,1.763223
987317119,1.650428
987361228,1.597203
987408442,1.639098
987455538,1.656873
987500784,1.625402
987544873,1.635875
987588977,1.681044
987636913,1.816397
987687406,1.582701
987732475,1.758389
987780217,1.039574
987829505,1.67621
987877870,1.769668
987924511,1.781753
988007774,1.615734
988053497,1.571421
988103356,1.607677
988151381,1.598814
988201098,1.589952
988253969,1.561753
988304253,1.610094
988352042,1.772891
988400565,1.553697
988451547,1.975972
988501859,1.274076
988552491,1.674598
988604451,1.774502
988653782,1.798673
988705515,1.698769
988755048,1.615734
988843097,1.672181
988893083,1.616539
988941152,1.601231
988993997,1.59962
989045958,1.714882
989094471,1.564976
989144108,1.54564
989196459,1.261186
989247198,1.613317
989298770,1.721328
989347220,1.806729
989398809,1.806729
989447550,1.618956
989499357,1.616539
989551250,1.617345
989600767,1.628624
989685119,1.606871
989737169,1.603648
989789409,1.777725
989839450,1.54564
989891761,2.272561
989940824,1.337725
989991330,1.691517
990045308,1.789004
990096255,1.852653
990149097,1.691517
990200229,1.640709
990251424,1.647155
990305873,1.689906
990359849,1.668958
990413526,1.67057
990462393,1.779336
990555966,1.603648
990605738,2.860806
990660761,1.653651
990714248,1.729384
990765916,1.870428
990817745,1.838956
990871839,1.689906
990922217,1.656873
990975324,1.663319
991025115,1.641515
991079074,1.622985
991133070,1.609288
991187050,1.764028
991241730,1.56417
991300016,1.818009
991354571,1.492465
991440552,1.740664
991494792,1.828483
991547730,1.753555
991600762,1.611705
991655756,1.60526
991709039,1.621373
991762578,1.608482
991814500,1.613317
991868017,1.640709
991922409,1.782559
991975927,1.56981
992033182,3.105026
992085364,1.601231
992140138,1.70602
992195254,1.776114
992281762,1.701991
992359195,1.643932
992392781,1.639098
992431160,1.628624
992465248,1.639098
992499413,1.631041
992531796,1.624596
992567994,1.696352
992602090,1.876068
992639739,1.566587
992675929,1.556113
992710471,2.320902
992747162,1.012937
992779436,1.633458
992812050,1.714882
992844317,1.779336
992882975,1.824454
992954580,1.745498
992988623,1.654456
993023376,1.652039
993060759,1.673793
993093872,1.664124
993128542,1.646349
993163077,1.645544
993196810,1.62379
993232662,1.614122
993270549,1.691517
993307015,1.854264
993341614,1.56417
993380017,1.569004
993414332,2.405498
993450552,0.984738
993488597,1.631041
993569445,1.791421
993607334,1.812369
993642505,1.811563
993678498,1.672987
993716419,1.621373
993754828,1.627013
993793651,1.637487
993832802,1.631041
993869632,1.60526
993909044,1.620568
993948463,1.613317
993986117,1.762417
994023672,1.738247
994062853,1.566587
994100356,1.47474
994137859,2.013033
994212072,1.677821
994247386,1.743081
994284610,1.805118
994321645,1.830094
994358861,1.76
994398350,1.645544
994437160,1.627013
994474842,1.631847
994513782,1.622985
994556372,1.609288
994594039,1.581089
994633124,1.609288
994672304,1.615734
994716175,1.85507
994757508,1.54564
994796213,1.566587
994871645,1.149952
994914783,1.677821
994955458,1.735024
994996905,1.774502
995035862,1.797061
995077791,1.712465
995119734,1.614122
995161215,1.62943
995201661,1.631041
995243305,1.613317
995281348,1.622179
995321563,1.611705
995360263,1.631847
995400857,1.796255
995443337,1.567393
995486876,1.574644
995560858,1.090332
995600445,1.674598
995643662,1.753555
995686788,1.802701
995730170,1.800284
995771241,1.69474
995815048,1.653651
995856832,1.67057
995899781,1.660902
995940629,1.636681
995984258,1.602843
996027807,1.586729
996071568,1.70602
996113655,1.714076
996155386,1.499716
996196126,1.411847
996275180,1.567393
996319057,1.679432
996361338,1.712465
996403850,1.751138
996448319,1.708437
996491032,1.586729
996534078,1.56981
996577390,1.621373
996622546,1.593175
996671271,1.581089
996713848,1.54564
996759478,1.718105
996806689,1.618956
996854465,1.517441
996900620,2.963177
996946917,1.517441
997025778,1.728579
997074655,1.800284
997120538,1.793838
997166653,1.65929
997218527,1.625402
997265513,1.650428
997311982,1.620568
997358043,1.618151
997406763,1.603648
997456275,1.706825
997504808,1.587535
997553319,1.577867
997600341,2.476448
997649026,1.619762
997696563,1.712465
997741980,1.787393
997825905,1.756777
997871675,1.638292
997921087,1.678627
997970571,1.664124
998015126,1.642321
998063221,1.65929
998113211,1.719716
998159651,1.769668
998208178,1.563365
998253860,2.109764
998302792,1.302275
998349747,1.685878
998398773,1.793033
998445967,1.809146
998491997,1.749526
998539017,1.655262
998620203,1.677821
998668640,1.638292
998716136,1.627013
998764760,1.612511
998814450,1.862371
998862740,1.560142
998911855,1.466683
998960278,0.9001419
999010672,1.643932
999058987,1.751943
999107612,1.790616
999159231,1.776114
999211989,1.614928
999262998,1.631041
999310170,1.639098
999361419,1.625402
999448484,1.734219
999501481,1.596397
999552954,1.53436
999604384,2.008199
999654069,1.602843
999705582,1.706825
999753791,1.775308
999804775,1.774502
999852330,1.622179
999902007,1.619762
999953870,1.614122
1000005770,1.600426
1000056048,1.595592
1000111095,1.82526
1000166495,1.50455
1000215445,2.013838
1000298514,1.645544
1000349280,1.71891
1000402121,1.799478
1000454925,1.71891
1000506045,1.616539
1000557411,1.647155
1000607233,1.643932
1000658656,1.642321
1000711981,1.735024
1000765058,1.574644
1000820230,1.539194
1000870457,1.141895
1000924406,1.622985
1000978543,1.734219
1001030214,1.760806
1001081957,1.701991
1001173145,1.569004
1001227752,1.573838
1001277703,1.558531
1001329101,1.547251
1001380007,1.809952
1001433781,1.473935
1001488167,1.874456
1001545339,1.547251
1001601786,1.67057
1001655113,1.740664
1001710383,1.740664
1001763668,1.614122
1001817284,1.59962
1001870421,1.620568
1001928485,1.583507
1001985203,1.588341
1002073260,1.852653
1002125404,1.562559
1002181253,2.763319
1002233593,1.618956
1002289774,1.733413
1002372550,1.805118
1002408224,1.788199
1002441113,1.712465
1002476960,1.660096
1002508514,1.652039
1002544494,1.672987
1002576794,1.663319
1002612556,1.628624
1002648433,1.62943
1002684137,1.658485
1002719810,1.847013
1002792993,1.573838
1002827497,1.618151
1002864360,1.289384
1002900722,1.632653
1002938619,1.712465
1002976017,1.762417
1003010790,1.78417
1003048791,1.774502
1003087711,1.692323
1003121335,1.682655
1003156843,1.699574
1003193736,1.718105
1003231186,1.689101
1003266426,1.672987
1003301950,1.673793
1003338015,1.662513
1003406791,1.820426
1003442109,1.59962
1003478318,1.600426
1003516354,3.187205
1003552530,1.193458
1003588766,1.667347
1003624113,1.729384
1003665517,1.797061
1003700534,1.818814
1003735560,1.78417
1003772075,1.646349
1003814997,1.618956
1003853000,1.638292
1003891600,1.657679
1003928325,1.615734
1003966673,1.604454
1004044008,1.640709
1004084628,1.864788
1004122204,1.532749
1004160607,1.549668
1004199320,3.038105
1004239197,1.244266
1004279421,1.653651
1004319382,1.741469
1004358268,1.813175
1004397639,1.829288
1004436397,1.728579
1004475040,1.642321
1004514942,1.613317
1004556545,1.639904
1004595851,1.622179
1004633416,1.590758
1004707153,1.583507
1004745394,1.59398
1004785759,1.693129
1004833066,1.549668
1004871776,1.547251
1004910971,3.08564
1004951973,1.365118
1004994111,1.674598
1005034913,1.742275
1005075864,1.811563
1005114852,1.826871
1005154940,1.723745
1005195483,1.621373
1005233377,1.608482
1005273921,1.637487
1005315760,1.606065
1005398388,1.613317
1005440776,1.628624
1005485329,1.689101
1005528116,1.742275
1005569515,1.541611
1005610937,1.498105
1005654571,1.075024
1005700259,1.622985
1005741296,1.713271
1005786157,1.780142
1005831226,1.838956
1005875041,1.743886
1005919079,1.695546
1005962911,1.699574
1006004992,1.721328
1006050333,1.689101
1006128803,1.67621
1006173866,1.679432
1006222664,1.889764
1006267916,1.59398
1006313861,1.561753
1006357137,1.03474
1006402210,1.641515
1006448675,1.737441
1006494882,1.801895
1006542038,1.78417
1006586749,1.652039
1006633146,1.614122
1006678835,1.664124
1006722746,1.647155
1006768697,1.624596
1006812848,1.611705
1006901761,1.72455
1006948031,1.556919
1006991801,1.532749
1007038436,3.193651
1007086704,1.588341
1007131134,1.665736
1007177909,1.761611
1007224703,1.780948
1007271841,1.713271
1007317240,1.614928
1007364850,1.597203
1007412350,1.614928
1007456131,1.631847
1007501680,1.624596
1007549414,1.602037
1007597083,1.731801
1007675736,1.544834
1007723841,1.685878
1007769650,0.9984344
1007815395,1.614928
1007861794,1.662513
1007908549,1.693129
1007956478,1.686683
1008003338,1.565782
1008051489,1.537583
1008101993,1.572227
1008151945,1.516635
1008202244,1.502939
1008249690,1.48038
1008300551,1.714882
1008347930,1.377203
1008398839,1.37962
1008485349,1.500522
1008534800,1.592369
1008584613,1.67057
1008634201,1.652845
1008680745,1.556919
1008732399,1.53436
1008778963,1.569004
1008826096,1.558531
1008876098,1.561753
1008925169,1.592369
1008973922,1.698769
1009026309,1.553697
1009077510,1.565782
1009125419,1.201515
1009174975,1.677015
1009224072,1.775308
1009305178,1.870428
1009355753,1.767251
1009405570,1.679432
1009454544,1.715688
1009503749,1.718105
1009552983,1.678627
1009604750,1.705214
1009656490,1.810758
1009711265,1.722133
1009761508,1.614928
1009815359,2.451421
1009865823,1.701991
1009914510,1.809952
1009964090,1.876068
1010013789,1.892987
1010068184,1.766445
1010160515,1.73019
1010213626,1.710048
1010264896,1.664124
1010318048,1.663319
1010369128,1.898627
1010423833,1.585924
1010477592,2.562655
1010528274,1.466683
1010581960,1.674598
1010633190,1.745498
1010684513,1.762417
1010735363,1.627819
1010789964,1.564976
1010842892,1.624596
1010894912,1.580284
1010947555,1.552085
1011038055,1.777725
1011089125,1.478769
1011142019,1.484408
1011192630,0.9484824
1011245345,1.625402
1011298115,1.739858
1011351180,1.750332
1011401766,1.703603
1011454199,1.602843
1011506326,1.615734
1011560397,1.642321
1011617398,1.631041
1011674086,1.631041
1011726852,1.798673
1011778095,1.576255
1011831889,1.494076
1011926797,1.668153
1011982079,1.772891
1012074253,1.782559
1012107568,1.638292
1012144019,1.62379
1012181413,1.630236
1012213451,1.639098
1012247370,1.603648
1012282989,1.643932
1012316805,1.639904
1012350586,1.579478
1012384577,1.624596
1012418790,1.753555
1012451559,1.763223
1012485874,1.540806
1012520706,1.581089
1012589945,1.112891
1012624487,1.687489
1012659489,1.780948
1012696162,1.809146
1012736073,1.859954
1012768690,1.809952
1012803040,1.722939
1012839205,1.680238
1012880421,1.685072
1012916700,1.667347
1012951568,1.656873
1012986373,1.639098
1013026038,1.622179
1013060630,1.645544
1013099975,1.785782
1013135949,1.793033
1013214980,1.508579
1013250196,2.621469
1013288638,1.53436
1013324425,1.708437
1013359972,1.725356
1013396741,1.769668
1013433167,1.797061
1013468687,1.751943
1013504585,1.683461
1013545278,1.647155
1013585125,1.662513
1013622548,1.689906
1013658360,1.673793
1013697694,1.637487
1013734974,1.612511
1013774371,1.625402
1013846522,1.783365
1013886184,1.537583
1013922528,1.531943
1013963920,2.601327
1014001986,1.583507
1014042979,1.697157
1014083498,1.719716
1014124730,1.826066
1014165437,1.800284
1014204421,1.705214
1014242053,1.638292
1014281008,1.666541
1014321398,1.639904
1014360298,1.634264
1014400532,1.608482
1014443215,1.624596
1014525463,1.714882
1014567192,1.621373
1014607145,1.548862
1014649288,1.602843
1014695044,0.9613732
1014736426,1.656068
1014779922,1.735024
1014823426,1.788199
1014865786,1.812369
1014906366,1.689906
1014948782,1.639904
1014987743,1.63507
1015031543,1.66493
1015073598,1.622179
1015117035,1.600426
1015165142,1.585924
1015240713,1.776114
1015283465,1.471517
1015325340,1.473935
1015369677,2.657725
1015413346,1.495688
1015455538,1.557725
1015502648,1.59962
1015545909,1.606871
1015592521,1.56417
1015637706,1.472323
1015679608,1.490854
1015721451,1.510996
1015762242,1.48038
1015808190,1.454598
1015852843,1.458627
1015893836,1.502133
1015978162,1.447347
1016019337,1.473935
1016064163,3.134836
1016109040,1.466683
1016154147,1.613317
1016197608,1.698769
1016242040,1.735024
1016284609,1.747915
1016326179,1.622985
1016370170,1.614928
1016415500,1.657679
1016461033,1.66493
1016504656,1.669764
1016551160,1.644738
1016595455,1.65929
1016640527,1.956635
1016723294,1.622179
1016766494,2.681946
1016813520,1.677015
1016858598,1.792227
1016903876,1.854264
1016952283,1.904266
1017002184,1.809952
1017051305,1.710854
1017096174,1.673793
1017145525,1.678627
1017190545,1.672987
1017239096,1.642321
1017286818,1.645544
1017334762,1.813175
1017379770,1.642321
1017425713,1.612511
1017506864,1.584312
1017556570,1.78981
1017601684,1.816397
1017648232,1.830899
1017696723,1.809146
1017745161,1.652845
1017792328,1.675404
1017844937,1.70038
1017895483,1.683461
1017941200,1.672181
1017990271,1.618956
1018037118,1.677015
1018084395,1.763223
1018131594,1.57545
1018179247,2.04526
1018227327,1.156397
1018310193,1.72455
1018358460,1.801895
1018407503,1.777725
1018455365,1.632653
1018508226,1.616539
1018553826,1.636681
1018603196,1.639904
1018652929,1.617345
1018699612,1.593175
1018749842,1.614928
1018798407,1.722133
1018851735,1.511801
1018901154,1.541611
1018950842,0.8751659
1019000825,1.62379
1019052289,1.701991
1019136252,1.796255
1019189419,1.603648
1019241073,1.613317
1019291106,1.591563
1019343310,1.622985
1019391938,1.631041
1019440523,1.621373
1019490669,1.59398
1019544501,1.749526
1019596695,1.574644
1019647291,1.472323
1019698400,0.9380087
1019751391,1.669764
1019800944,1.762417
1019852196,1.81962
1019901321,1.771279
1019987081,1.597203
1020038457,1.646349
1020092117,1.610899
1020141799,1.618151
1020195492,1.639098
1020246819,1.609288
1020298404,1.84943
1020353782,1.568199
1020409012,3.162229
1020463206,1.632653
1020513797,1.710048
1020566326,1.801895
1020622313,1.798673
1020676137,1.663319
1020735589,1.658485
1020791327,1.67057
1020883092,1.636681
1020939076,1.643127
1020994373,1.732607
1021045641,1.576255
1021098658,1.519858
1021153462,0.9799039
1021206641,1.685072
1021259434,1.762417
1021312308,1.776919
1021365802,1.683461
1021419380,1.658485
1021472982,1.693934
1021526557,1.650428
1021581962,1.610094
1021635464,1.631041
1021689136,1.598814
1021756983,1.51583
1021793866,1.50455
1021825999,1.571421
1021859497,1.132227
1021894186,1.51583
1021934636,1.59398
1021969521,1.553697
1022002792,1.638292
1022036221,1.602843
1022072294,1.589146
1022108372,1.490048
1022143839,1.432795
1022177465,1.506967
1022213792,1.481991
1022247484,1.490048
1022283371,1.453793
1022355896,1.466683
1022393085,1.486825
1022428233,1.686683
1022463210,1.411847
1022498192,1.427155
1022532279,1.478769
1022569436,0.7526527
1022608648,1.496493
1022644211,1.593175
1022678630,1.655262
1022716322,1.770474
1022752176,1.726162
1022789934,1.606871
1022825971,1.577867
1022864407,1.600426
1022900703,1.661707
1022973269,1.652039
1023011655,1.62943
1023049885,1.66493
1023088057,1.709242
1023126500,1.878485
1023162038,1.660096
1023199278,1.618151
1023233990,1.745498
1023271553,0.8558297
1023309810,1.73019
1023349017,1.789004
1023388130,1.87929
1023427457,1.90185
1023466730,1.897821
1023504656,1.731801
1023542429,1.688295
1023619964,1.701991
1023663537,1.672181
1023702848,1.641515
1023744711,1.602843
1023786611,1.571421
1023827503,1.654456
1023868375,1.535166
1023909369,1.445736
1023948305,1.897015
1023990638,0.9057817
1024031076,1.51019
1024071337,1.550474
1024117915,1.639098
1024161967,1.654456
1024204659,1.524692
1024245571,1.467489
1024323963,1.512607
1024368295,1.523081
1024410004,1.51583
1024454455,1.543223
1024496261,1.60526
1024540282,1.757583
1024581758,1.523886
1024621868,1.50455
1024664321,1.490048
1024703852,1.667347
1024747216,1.748721
1024789026,1.798673
1024829251,1.847819
1024872578,1.835733
1024913012,1.73019
1024956187,1.76
1025036397,1.809952
1025079964,1.764028
1025121720,1.773697
1025165638,1.710854
1025209496,1.780142
1025249660,1.98564
1025291449,1.699574
1025335674,1.666541
1025379815,1.685878
1025422288,1.757583
1025466986,1.826871
1025509254,1.905878
1025549614,1.967915
1025596660,1.888959
1025638838,1.762417
1025683945,1.762417
1025759665,1.769668
1025802889,1.712465
1025849569,1.703603
1025897183,1.714882
1025944008,1.848624
1025987511,1.712465
1026033152,1.589952
1026079519,2.938201
1026127376,1.577061
1026173490,1.743081
1026217894,1.81398
1026264161,1.846207
1026310756,1.812369
1026352980,1.701991
1026398961,1.646349
1026441176,1.691517
1026522120,1.646349
1026568807,1.614122
1026617087,1.639098
1026662692,1.686683
1026711990,1.561753
1026759445,1.540806
1026802669,2.541708
1026849236,1.561753
1026894800,1.661707
1026939457,1.701991
1026986144,1.699574
1027031445,1.631847
1027075879,1.563365
1027121435,1.560142
1027167851,1.536777
1027215987,1.548862
1027297033,1.517441
1027348352,1.523886
1027395347,1.665736
1027444075,1.562559
1027491259,1.478769
1027537114,3.174314
1027582918,1.552891
1027628973,1.666541
1027679835,1.751943
1027727209,1.788199
1027773910,1.706825
1027819711,1.627819
1027868527,1.627819
1027918071,1.651234
1027969342,1.639098
1028018962,1.660096
1028102482,1.650428
1028152769,1.78417
1028201223,1.744692
1028247075,1.600426
1028295372,2.80602
1028348433,1.677821
1028398788,1.789004
1028446197,1.851041
1028492444,1.895404
1028543249,1.779336
1028590355,1.67621
1028639217,1.698769
1028688643,1.673793
1028740360,1.668153
1028789407,1.646349
1028840337,1.665736
1028921631,1.774502
1028973577,1.59962
1029022552,1.544028
1029072296,1.080664
1029124112,1.697157
1029178924,1.783365
1029228458,1.781753
1029276710,1.760806
1029325161,1.643932
1029378473,1.633458
1029430128,1.652039
1029489021,1.62943
1029541794,1.627819
1029592368,1.622985
1029645431,1.71891
1029700209,1.557725
1029785079,2.648057
1029836304,1.621373
1029889409,1.722939
1029940658,1.838151
1029992135,1.817203
1030045562,1.669764
1030097661,1.672181
1030149608,1.667347
1030203731,1.646349
1030255966,1.643932
1030309737,1.633458
1030360069,1.806729
1030411266,1.650428
1030468425,1.586729
1030518425,1.342559
1030569632,1.683461
1030657986,1.832511
1030717620,1.838151
1030772406,1.646349
1030825685,1.610094
1030878901,1.631847
1030935757,1.626207
1030988772,1.600426
1031043509,1.618151
1031096762,1.712465
1031151735,1.560948
1031205144,1.472323
1031258899,1.05891
1031314625,1.684266
1031399658,1.847819
1031432946,1.842179
1031466260,1.723745
1031535924,1.581895
1031571510,1.611705
1031610096,1.598009
1031643033,1.614928
1031675387,1.589952
1031711271,1.57545
1031744188,1.564976
1031779340,1.692323
1031813274,1.736635
1031848843,1.51583
1031882663,1.559336
1031919500,3.088862
1031956367,1.021799
1031993548,1.634264
1032029170,1.695546
1032065966,1.743886
1032136550,1.764834
1032173742,1.631041
1032207499,1.585118
1032242903,1.572227
1032280384,1.652845
1032315449,1.645544
1032353063,1.581089
1032389509,1.598814
1032426336,1.594786
1032462454,1.815592
1032497859,1.579478
1032536015,1.551279
1032575950,2.033175
1032612638,1.060522
1032652409,1.610899
1032692041,1.710048
1032763988,1.808341
1032801714,1.831705
1032838294,1.639904
1032874429,1.690712
1032913673,1.671376
1032951301,1.730996
1032990269,1.675404
1033033809,1.627013
1033074568,1.652845
1033115412,1.78981
1033154298,1.645544
1033193201,1.56981
1033235313,1.841373
1033274772,1.162037
1033316538,1.640709
1033357791,1.805118
1033433484,1.780948
1033474037,1.781753
1033512779,1.655262
1033553505,1.652845
1033592581,1.63507
1033633254,1.614122
1033674413,1.827677
1033715734,1.317583
1033757217,1.892181
1033796520,1.739858
1033837906,1.40379
1033879297,1.461044
1033921072,1.218434
1033963195,1.523081
1034005539,1.721328
1034045573,1.784976
1034120727,1.698769
1034162150,1.563365
1034203631,1.606065
1034246323,1.548057
1034286123,1.75436
1034328997,1.687489
1034369411,1.689101
1034409744,1.665736
1034454413,1.844596
1034493834,1.506967
1034537275,1.690712
1034578969,0.8896681
1034622727,1.581895
1034667806,1.67057
1034712416,1.751138
1034758804,1.869622
1034832523,1.685072
1034876377,1.552891
1034919742,2.062179
1034964203,1.738247
1035008292,1.540806
1035050324,1.704408
1035092428,1.541611
1035135906,1.484408
1035177203,2.83019
1035223485,1.30872
1035264898,1.964692
1035307506,1.457821
1035353090,2.013033
1035397572,1.543223
1035440959,1.521469
1035487825,1.221657
1035570782,1.621373
1035614454,1.636681
1035659535,1.778531
1035702961,1.776919
1035748972,1.453793
1035795187,1.876873
1035839694,0.8767773
1035882568,1.498911
1035927187,1.653651
1035973989,1.79545
1036019495,1.790616
1036066064,1.660096
1036115308,1.665736
1036160388,1.691517
1036208008,1.660096
1036255047,1.653651
1036332305,1.908295
1036379414,1.556919
1036424611,1.482797
1036473532,0.8413276
1036519312,1.634264
1036565297,1.740664
1036611253,1.798673
1036659327,1.842179
1036704071,1.668153
1036753562,1.642321
1036800512,1.650428
1036846752,1.654456
1036894230,1.621373
1036939186,1.622179
1036984403,1.838151
1037030856,1.535972
1037118614,2.779432
1037167267,1.597203
1037214181,1.716493
1037259741,1.847819
1037309067,1.988862
1037354700,1.760806
1037402092,1.672987
1037447597,1.669764
1037497066,1.654456
1037546765,1.697963
1037594827,1.62379
1037641285,1.625402
1037691432,1.687489
1037739170,1.507773
1037789254,2.814076
1037840586,1.585924
1037926623,1.846207
1037977034,1.824454
1038024062,1.738247
1038072978,1.690712
1038123481,1.652039
1038175394,1.661707
1038230358,1.532749
1038283048,1.682655
1038334302,1.89621
1038387967,1.618956
1038439499,1.498105
1038489240,1.00488
1038538059,1.598814
1038588461,1.73583
1038637292,1.790616
1038687015,1.708437
1038776226,1.518247
1038826289,1.734219
1038874901,1.618151
1038925012,1.586729
1038975480,1.769668
1039027864,1.697963
1039077476,1.595592
1039127940,3.05019
1039181428,1.635875
1039230758,1.71891
1039281426,1.856732
1039334409,1.91474
1039392310,1.70602
1039445186,1.675404
1039496519,1.73019
1039546346,1.69474
1039634283,1.677015
1039684877,1.895404
1039737207,1.548057
1039787879,1.485214
1039840609,1.051659
1039891517,1.672181
1039944741,1.721328
1039996004,1.824454
1040048258,1.657679
1040100103,1.563365
1040152220,1.562559
1040206506,1.589146
1040260744,1.566587
1040316786,1.595592
1040368940,1.732607
1040422053,1.496493
1040512106,0.9283405
1040563904,1.539194
1040617943,1.647961
1040673012,1.681044
1040728284,1.547251
1040780865,1.451376
1040835389,1.444124
1040890920,1.395734
1040946874,1.365118
1041002226,1.446541
1041086525,1.273271
1041121960,1.436823
1041153909,0.884834
1041186778,1.369146
1041221435,1.436017
1041254834,1.548057
1041324082,1.595592
1041358666,1.654456
1041392398,1.521469
1041424830,1.48602
1041459196,1.526304
1041495190,1.552085
1041534244,1.597203
1041569106,1.568199
1041606320,1.576255
1041644255,1.688295
1041680298,1.814786
1041717177,1.564976
1041753277,1.577867
1041786585,2.611801
1041823238,1.074218
1041858535,1.703603
1041932664,1.880902
1041975236,1.961469
1042015372,1.962275
1042052531,1.848624
1042088699,1.791421
1042128538,1.818814
1042168917,1.838151
1042208411,1.801895
1042248959,1.804312
1042288333,1.880902
1042329254,1.846207
1042366597,1.728579
1042402857,1.620568
1042440371,1.678627
1042475967,1.779336
1042513663,1.84379
1042584991,1.928437
1042621292,1.942133
1042660760,1.863177
1042696943,1.791421
1042736247,1.787393
1042774633,1.780948
1042813488,1.769668
1042851258,1.718105
1042890259,1.703603
1042930085,1.909906
1042966248,1.682655
1043006042,1.596397
1043046398,1.975972
1043087042,1.027439
1043126103,1.683461
1043167063,1.743081
1043241034,1.854264
1043280603,1.82526
1043319907,1.67621
1043358550,1.650428
1043399980,1.641515
1043437944,1.624596
1043476650,1.618956
1043519498,1.597203
1043562591,1.808341
1043606985,1.500522
1043647216,1.488437
1043691092,2.850332
1043733399,1.490048
1043777272,1.643127
1043817374,1.70038
1043857754,1.76
1043934760,1.656873
1043977033,1.618151
1044015352,1.622179
1044058002,1.621373
1044098242,1.602843
1044138842,1.584312
1044181551,1.756777
1044226205,1.507773
1044267835,1.502133
1044314761,3.071137
1044359868,1.577867
1044399835,1.663319
1044445002,1.73019
1044486497,1.772891
1044528251,1.763223
1044569862,1.631847
1044648105,1.610094
1044690446,1.606871
1044732744,1.607677
1044774332,1.610094
1044818612,1.850236
1044860955,1.498105
1044908142,1.460238
1044949352,2.078343
1044995718,1.566587
1045038818,1.682655
1045078910,1.729384
1045120873,1.783365
1045162798,1.743886
1045208502,1.597203
1045251875,1.613317
1045295303,1.622179
1045369928,1.587535
1045414076,1.699574
1045458099,1.714882
1045505599,1.521469
1045553412,2.453838
1045596283,1.02905
1045642891,1.653651
1045687605,1.723745
1045732748,1.805923
1045779041,1.793033
1045827217,1.65929
1045873884,1.651234
1045918757,1.711659
1045962246,1.671376
1046011277,1.632653
1046056888,1.937299
1046138795,1.573838
1046184338,2.170995
1046231082,1.59398
1046276840,1.705214
1046324000,1.780142
1046368373,1.785782
1046414558,1.675404
1046460271,1.560948
1046506254,1.573033
1046555757,1.597203
1046605111,1.543223
1046653906,1.65929
1046699114,1.681849
1046746032,1.442463
1046794922,2.764124
1046841141,1.438434
1046929755,1.732607
1046980231,1.809952
1047028990,1.706825
1047078874,1.598009
1047128843,1.601231
1047173455,1.59962
1047220080,1.53436
1047269029,1.527915
1047315526,1.726162
1047363129,1.435212
1047411869,1.610094
1047458064,0.9315633
1047505328,1.572227
1047554517,1.669764
1047601725,1.714882
1047650848,1.689101
1047735127,1.589952
1047783313,1.581089
1047835651,1.579478
1047882537,1.585924
1047929427,1.775308
1047980616,1.498105
1048036523,2.704504
1048087787,1.473935
1048137519,1.686683
1048187217,1.732607
1048239102,1.822843
1048288521,1.710854
1048339646,1.693934
1048387790,1.744692
1048439425,1.713271
1048489111,1.703603
1048574895,1.745498
1048627601,1.602037
1048678233,2.997015
1048730468,1.627819
1048781051,1.758389
1048831532,1.832511
1048883961,1.84379
1048936827,1.719716
1048987884,1.673793
1049038065,1.716493
1049090032,1.667347
1049141025,1.646349
1049192984,1.73583
1049244143,1.587535
1049298108,1.567393
1049349749,1.18943
1049440308,1.709242
1049493137,1.812369
1049546826,1.800284
1049599694,1.665736
1049653312,1.647155
1049705395,1.65929
1049756101,1.678627
1049808488,1.598009
1049862895,1.639098
1049916710,1.67621
1049970920,1.701991
1050025341,1.562559
1050079915,2.274978
1050131970,1.568199
1050186284,1.715688
1050240522,1.827677
1050330734,1.686683
1050383401,1.641515
1050440142,1.688295
1050496706,1.680238
1050552184,1.644738
1050607716,1.609288
1050661315,1.639098
1050715017,1.847819
1050803954,1.465072
1050840132,1.821231
1050881754,1.583507
1050917202,1.666541
1050952551,1.712465
1050987514,1.764028
1051023593,1.805118
1051063213,1.722133
1051136566,1.618151
1051175899,1.640709
1051211593,1.627013
1051251525,1.583507
1051288039,1.566587
1051322505,1.549668
1051359264,1.564976
1051395787,1.586729
1051435535,1.607677
1051474086,1.602843
1051507677,1.60526
1051544924,1.615734
1051580152,1.627819
1051617254,1.625402
1051654668,1.62379
1051692148,1.633458
1051758825,0.7002838
1051796763,1.67621
1051834824,1.778531
1051870905,1.822037
1051908878,1.87929
1051947233,1.90185
1051985599,1.753555
1052022273,1.642321
1052060810,1.618151
1052097178,1.632653
1052134223,1.655262
1052174825,1.656873
1052211868,1.633458
1052250935,1.638292
1052288298,1.640709
1052324969,1.622985
1052401853,1.681849
1052444842,1.716493
1052485771,1.804312
1052522613,1.682655
1052563138,1.607677
1052600946,1.93166
1052641544,1.689906
1052681316,1.748721
1052721313,1.833316
1052759148,1.888959
1052800997,1.888153
1052838284,1.76
1052879231,1.66493
1052916655,1.651234
1052955611,1.678627
1052997839,1.714882
1053074050,1.758389
1053114693,1.768057
1053158750,1.766445
1053200900,1.73019
1053237963,1.726162
1053277409,1.687489
1053315944,1.609288
1053356696,1.526304
1053397742,2.684362
1053439930,1.466683
1053479374,1.542417
1053518999,1.627013
1053560575,1.722133
1053602806,1.730996
1053643050,1.578672
1053688294,1.519052
1053766158,1.583507
1053807938,1.559336
1053848194,1.598009
1053888679,1.548862
1053933106,1.597203
1053974073,1.622179
1054020058,1.597203
1054061515,1.637487
1054105327,1.590758
1054147108,1.573838
1054190935,3.185594
1054233494,1.668153
1054277957,1.734219
1054320482,1.828483
1054362763,1.904266
1054405932,1.92602
1054482854,1.620568
1054525436,1.655262
1054567733,1.631041
1054614087,1.644738
1054657625,1.626207
1054701381,1.615734
1054742815,1.615734
1054786836,1.616539
1054828274,1.647155
1054871610,1.692323
1054911935,1.678627
1054954295,1.646349
1054996702,2.208057
1055040369,1.249906
1055081363,1.710854
1055126741,1.777725
1055207353,1.940522
1055253126,1.729384
1055300875,1.573033
1055349808,1.592369
1055396459,1.597203
1055439552,1.583507
1055484407,1.563365
1055531243,1.557725
1055577465,1.618956
1055629618,1.613317
1055677924,1.490048
1055724657,2.546542
1055774264,1.253935
1055821597,1.579478
1055864586,1.639098
1055909297,1.73583
1055992750,1.543223
1056038288,1.499716
1056085725,1.493271
1056131255,1.506967
1056175664,1.500522
1056219779,1.503745
1056265894,1.632653
1056311956,1.483603
1056360209,1.497299
1056406445,2.054122
1056450221,1.561753
1056500520,1.697157
1056544680,1.766445
1056590463,1.876873
1056639323,1.728579
1056691690,1.616539
1056777010,1.688295
1056824379,1.679432
1056871604,1.679432
1056921488,1.768057
1056968674,1.78981
1057016942,1.651234
1057063490,2.245924
1057112138,1.381231
1057158763,1.799478
1057205750,1.874456
1057253145,1.986445
1057303433,1.899432
1057351247,1.756777
1057399338,1.714882
1057447487,1.719716
1057499206,1.736635
1057582749,1.805923
1057631426,1.602843
1057679274,1.586729
1057730072,1.570616
1057781281,1.618956
1057832563,1.713271
1057883824,1.781753
1057935624,1.771279
1057983763,1.579478
1058037056,1.560142
1058088978,1.564976
1058140637,1.505356
1058192377,1.513413
1058244062,1.657679
1058295467,1.655262
1058344311,2.331376
1058430928,1.82526
1058482661,1.842985
1058532216,1.837345
1058584528,1.642321
1058636995,1.572227
1058689624,1.606065
1058740661,1.525498
1058791680,1.390094
1058844914,1.467489
1058900637,1.103223
1058953105,1.087109
1059007847,0.7357336
1059061119,1.324028
1059114774,1.505356
1059166528,1.616539
1059220398,1.505356
1059305279,1.557725
1059358377,1.637487
1059411458,1.666541
1059471871,1.951801
1059527365,1.616539
1059582954,1.610899
1059636647,1.490048
1059694269,1.837345
1059751662,1.943745
1059805104,2.016255
1059863463,1.793033
1059917813,1.764028
1059976744,1.779336
1060033212,1.749526
1060086208,1.721328
1060141357,1.730996
1060230652,1.703603
1060287619,1.638292
1060343176,1.1
1060395887,1.779336
1060449698,1.884124
1060534786,1.970332
1060570268,1.822843
1060605817,1.729384
1060637981,1.749526
1060672839,1.729384
1060707961,1.711659
1060741680,1.692323
1060777569,1.671376
1060812777,1.672987
1060848298,1.645544
1060881526,1.703603
1060950458,1.54564
1060985890,1.532749
1061020987,1.748721
1061059050,0.9807095
1061094170,1.579478
1061131426,1.690712
1061166633,1.743886
1061202104,1.813175
1061240729,1.809146
1061281580,1.67621
1061321541,1.595592
1061356413,1.622985
1061393066,1.635875
1061428957,1.594786
1061469354,1.577867
1061504450,1.563365
1061577671,1.579478
1061615701,1.607677
1061654004,1.701991
1061688619,1.821231
1061726173,1.531943
1061760245,1.548862
1061796715,2.512703
1061836601,1.126587
1061876781,1.678627
1061915710,1.741469
1061958337,1.829288
1061998806,1.899432
1062034839,1.859954
1062073755,1.696352
1062111107,1.640709
1062148437,1.646349
1062219467,1.637487
1062257380,1.62943
1062293451,1.610094
1062331550,1.624596
1062369551,1.635875
1062409397,1.702797
1062446338,1.667347
1062488961,1.583507
1062526945,1.60526
1062567918,1.158009
1062606939,1.620568
1062645841,1.714882
1062686559,1.790616
1062725599,1.815592
1062768084,1.768862
1062807617,1.668153
1062885379,1.653651
1062924779,1.645544
1062966444,1.614928
1063007816,1.586729
1063052229,1.618151
1063095551,1.63507
1063135986,1.84379
1063176229,1.557725
1063215005,1.53436
1063255490,2.968817
1063297985,1.315166
1063341611,1.672987
1063385712,1.743081
1063428082,1.836539
1063467443,1.847819
1063511783,1.686683
1063585716,1.624596
1063628936,1.651234
1063670042,1.634264
1063711373,1.622985
1063754975,1.631041
1063798541,1.595592
1063840313,1.622179
1063884133,1.72455
1063925549,1.66493
1063969126,1.573033
1064014153,2.237867
1064060700,1.253129
1064104734,1.681044
1064145387,1.755166
1064187789,1.850236
1064232200,1.884124
1064313727,1.633458
1064363514,1.625402
1064409609,1.642321
1064452986,1.622985
1064500133,1.616539
1064547950,1.617345
1064589410,1.615734
1064629835,1.714882
1064672748,1.685878
1064717591,1.570616
1064759745,2.048482
1064801845,1.062133
1064843299,1.647155
1064885750,1.727773
1064929099,1.801895
1064973319,1.839762
1065059992,1.606065
1065102435,1.634264
1065145198,1.639098
1065194357,1.62379
1065236450,1.609288
1065279463,1.614122
1065323867,1.608482
1065372407,1.612511
1065418987,1.8664
1065464478,1.553697
1065508963,1.486825
1065555573,0.9090043
1065599905,1.631041
1065645811,1.731801
1065691178,1.832511
1065738529,1.870428
1065822707,1.615734
1065868601,1.627819
1065916760,1.667347
1065962740,1.618956
1066008547,1.606871
1066054400,1.618151
1066099144,1.614122
1066148929,1.62379
1066200268,1.75436
1066247099,1.577061
1066291297,1.566587
1066339074,1.75436
1066386744,1.622179
1066435388,1.720522
1066482245,1.78981
1066531492,1.868011
1066611690,1.621373
1066662302,1.614122
1066711667,1.651234
1066761015,1.606871
1066812029,1.62943
1066859588,1.637487
1066908711,1.632653
1066955837,1.755166
1067004002,1.56981
1067054133,1.507773
1067102069,1.168482
1067149022,1.627819
1067199079,1.761611
1067247085,1.821231
1067295767,1.850236
1067344481,1.699574
1067431728,1.679432
1067485451,1.666541
1067534311,1.652039
1067587126,1.646349
1067638276,1.651234
1067689818,1.723745
1067741578,1.561753
1067793250,1.490048
1067843138,1.076635
1067894366,1.633458
1067945974,1.668153
1068001283,1.776114
1068054106,1.689906
1068105198,1.536777
1068157164,1.589952
1068209903,1.59962
1068299772,1.539194
1068355213,1.566587
1068411609,1.618151
1068463974,1.489242
1068518562,1.441657
1068570557,1.006491
1068620611,1.63507
1068670627,1.70602
1068721976,1.79545
1068776128,1.748721
1068829757,1.608482
1068881555,1.601231
1068935552,1.657679
1068989331,1.638292
1069043227,1.603648
1069097194,1.63507
1069185531,1.646349
1069239900,1.618956
1069292382,1.324834
1069343415,1.672181
1069397768,1.767251
1069452395,1.854264
1069506512,1.793838
1069557006,1.67057
1069611325,1.684266
1069665373,1.680238
1069717067,1.67621
1069774276,1.671376
1069827990,1.679432
1069883463,1.697157
1069937195,1.690712
1069992855,1.60526
1070084498,1.671376
1070142755,1.730996
1070199098,1.841373
1070285123,1.699574
1070316444,1.639098
1070352785,1.639904
1070385725,1.638292
1070419237,1.658485
1070453187,1.672987
1070489061,1.627819
1070521810,1.615734
1070559523,1.611705
1070594156,1.613317
1070628253,1.614122
1070663393,1.621373
1070701374,1.67621
1070773045,1.576255
1070813592,1.558531
1070852095,1.141089
1070887449,1.614122
1070925812,1.680238
1070960930,1.739052
1070998033,1.805923
1071035315,1.812369
1071070838,1.748721
1071104948,1.644738
1071140837,1.588341
1071176681,1.634264
1071213565,1.647961
1071249554,1.627013
1071289341,1.616539
1071324930,1.592369
1071398475,1.606871
1071434903,1.608482
1071471255,1.595592
1071509458,1.645544
1071546051,1.780948
1071587217,1.502133
1071624114,1.508579
1071663114,2.87128
1071700380,1.332085
1071739618,1.597203
1071777879,1.66493
1071818524,1.731801
1071856820,1.753555
1071891891,1.69474
1071931773,1.543223
1071968485,1.523886
1072039000,1.573033
1072076781,1.563365
1072117977,1.553697
1072159448,1.567393
1072197276,1.568199
1072235877,1.581089
1072276744,1.600426
1072314278,1.638292
1072353584,1.835733
1072392424,1.606065
1072433400,1.565782
1072474909,3.135642
1072514336,1.431989
1072552294,1.697157
1072591831,1.758389
1072631210,1.830899
1072704970,1.779336
1072747910,1.660096
1072790984,1.674598
1072833047,1.686683
1072871748,1.718105
1072912169,1.678627
1072954593,1.664124
1072996422,1.655262
1073043213,1.655262
1073087606,1.674598
1073127864,1.744692
1073172736,1.668153
1073218551,1.608482
1073259217,3.1155
1073297574,1.12981
1073339436,1.693934
1073418607,1.844596
1073459716,1.841373
1073502719,1.762417
1073541695,1.661707
1073580653,1.631847
1073621384,1.652039
1073665140,1.680238
1073710200,1.646349
9906,1.632653
51667,1.640709
97047,1.631847
137529,1.643932
179368,1.654456
221631,1.867205
268629,1.589952
313013,1.523886
387367,1.614928
429066,1.723745
475355,1.779336
516915,1.853458
561280,1.829288
602985,1.627013
647630,1.586729
689374,1.606871
733663,1.615734
777858,1.579478
821255,1.562559
865905,1.560948
909040,1.574644
952643,1.570616
1000104,1.610094
1047581,1.600426
1130325,1.551279
1173012,0.9315633
1218989,1.560948
1264255,1.672987
1310442,1.771279
1355650,1.831705
1401201,1.635875
1444302,1.552891
1490842,1.579478
1537641,1.608482
1585677,1.583507
1633740,1.592369
1680428,1.584312
1727577,1.618151
1771428,1.722939
1816586,1.655262
1896446,1.771279
1942809,1.104028
1989962,1.696352
2038905,1.755972
2086342,1.828483
2132120,1.798673
2178090,1.606065
2223856,1.583507
2274371,1.585924
2321493,1.581895
2370793,1.563365
2420185,1.493271
2466604,1.490854
2515190,1.56981
2561749,1.466683
2608218,1.423127
2693880,1.140284
2743186,1.556113
2797323,1.631847
2847436,1.716493
2896632,1.583507
2945012,1.523886
2993556,1.554502
3044934,1.56417
3093706,1.556113
3146501,1.540806
3196906,1.573033
3250302,1.851847
3299987,1.548057
3347373,1.601231
3396184,0.9774868
3444059,1.67057
3529142,1.854264
3578207,1.848624
3628463,1.677015
3678811,1.627819
3728827,1.693934
3779087,1.696352
3829695,1.702797
3878182,1.673793
3928889,1.698769
3977663,1.964692
4026792,1.672181
4077985,1.691517
4129557,1.120142
4182538,1.755972
4232361,1.838151
4284189,1.937299
4368842,1.736635
4418623,1.70038
4471649,1.708437
4521851,1.672987
4573964,1.647155
4624347,1.611705
4676668,1.758389
4728566,1.609288
4781906,1.535166
4835017,1.311943
4889148,1.652039
4941790,1.715688
4996174,1.820426
5048897,1.757583
5099620,1.581895
5152390,1.604454
5239653,1.613317
5286589,1.600426
5341321,1.598009
5390927,1.627013
5442067,1.872845
5496570,1.547251
5551343,2.721424
5602869,1.563365
5659373,1.652845
5714707,1.734219
5765003,1.758389
5818691,1.552085
5870521,1.490854
5922366,1.481186
5974488,1.469906
6026593,1.448153
6116424,1.406207
6167928,1.51019
6219666,1.407013
6273923,1.34417
6326058,1.032323
6384211,1.53436
6437045,1.622179
6493747,1.712465
6547029,1.69474
6599631,1.610094
6651645,1.684266
6703738,1.684266
6760355,1.654456
6812833,1.67057
6867519,1.785782
6921175,1.592369
7006710,2.924504
7061971,1.689101
7120464,1.799478
7175853,1.867205
7229883,1.837345
7285713,1.729384
7369095,1.788199
7404654,1.780142
7442873,1.757583
7480122,1.740664
7513701,1.741469
7546226,1.88493
7583767,1.812369
7616150,1.614928
7650341,1.671376
7684442,3.221044
7757978,1.76
7791315,1.84943
7827892,1.887347
7859767,1.911517
7893465,1.909906
7929695,1.822037
7966478,1.730996
8004419,1.710048
8043900,1.721328
8078024,1.704408
8111644,1.685072
8146948,1.67621
8184227,1.678627
8220010,1.751943
8262544,1.770474
8302602,1.556919
8372203,3.184788
8410952,1.521469
8449127,1.698769
8484028,1.73019
8517053,1.769668
8554783,1.822037
8590531,1.803506
8628434,1.665736
8665396,1.597203
8700051,1.627819
8735544,1.620568
8773804,1.634264
8810138,1.606871
8847469,1.609288
8881142,1.604454
8917508,1.713271
8994518,1.523081
9029538,1.538389
9066278,3.225072
9102820,1.32
9144719,1.666541
9185156,1.72455
9222577,1.79545
9258298,1.826066
9299284,1.751138
9336381,1.638292
9377162,1.618956
9414499,1.639098
9453897,1.63507
9491292,1.624596
9529320,1.619762
9567017,1.606871
9638505,1.661707
9676183,1.613317
9713878,1.52872
9752393,1.560948
9792795,0.794548
9835307,1.589146
9873315,1.66493
9910711,1.734219
9951533,1.79545
9991398,1.772891
10031280,1.614928
10071348,1.559336
10111659,1.587535
10150305,1.56981
10191589,1.549668
10232144,1.549668
10310904,1.581089
10351108,1.81962
10392821,1.519858
10434607,1.487631
10473139,2.951092
10513232,1.512607
10555396,1.639904
10595271,1.714076
10637367,1.790616
10679327,1.793838
10721508,1.67057
10761146,1.593175
10801019,1.631041
10843401,1.639904
10888667,1.609288
10930647,1.621373
11008492,1.807535
11051255,1.560142
11094408,1.516635
11135724,1.353033
11178942,1.606065
11218676,1.714882
11262212,1.808341
11305389,1.829288
11355125,1.735024
11400175,1.653651
11442507,1.685878
11485753,1.699574
11530521,1.675404
11576959,1.642321
11622166,1.764028
11669995,1.713271
11753343,1.755166
11800253,1.031518
11844711,1.689101
11887141,1.750332
11931691,1.828483
11974368,1.818009
12020751,1.697157
12065577,1.655262
12108774,1.674598
12153088,1.682655
12198945,1.620568
12242975,1.614122
12288397,1.763223
12332490,1.657679
12377810,1.513413
12421961,2.505452
12499596,1.619762
12544943,1.70602
12589384,1.783365
12636008,1.792227
12679750,1.643932
12726373,1.600426
12769806,1.634264
12813228,1.650428
12861654,1.589146
12906797,1.587535
12955554,1.640709
13000937,1.806729
13048562,1.519858
13097303,1.563365
13145916,1.008103
13193747,1.637487
13280214,1.776114
13327215,1.78417
13375515,1.650428
13422255,1.585118
13468171,1.664124
13515902,1.640709
13562827,1.607677
13607581,1.63507
13657471,1.610094
13702063,1.631041
13747549,1.832511
13795830,1.566587
13844900,1.513413
13891933,1.025827
13942664,1.641515
13990591,1.744692
14069584,1.846207
14117511,1.730996
14165652,1.612511
14213496,1.646349
14262648,1.650428
14311145,1.616539
14356942,1.611705
14405705,1.619762
14452714,1.627013
14502257,1.706825
14552128,1.698769
14604860,1.569004
14653143,3.212181
14704670,1.588341
14753104,1.718105
14798460,1.787393
14883625,1.774502
14931838,1.655262
14982071,1.647155
15030693,1.660096
15079489,1.607677
15128461,1.586729
15179953,1.584312
15229017,1.59962
15281067,1.822037
15333939,1.566587
15383878,1.736635
15435722,1.073413
15485561,1.681044
15535131,1.761611
15588375,1.811563
15641573,1.735024
15727833,1.692323
15776306,1.688295
15828613,1.642321
15877172,1.610094
15927863,1.626207
15976646,1.826871
16027104,1.548862
16078055,1.506967
16131089,1.025022
16180329,1.672181
16233423,1.768057
16283990,1.813175
16336669,1.714882
16391090,1.63507
16445543,1.647155
16498753,1.633458
16584551,1.607677
16633439,1.637487
16686974,1.832511
16740319,1.536777
16799593,3.212987
16857236,1.613317
16907877,1.723745
16961873,1.808341
17018053,1.793838
17070357,1.658485
17122541,1.627013
17176428,1.640709
17230543,1.618956
17284689,1.614122
17336768,1.603648
17387532,1.827677
17474712,1.548057
17529691,1.04602
17581847,1.627013
17635627,1.73019
17686778,1.78981
17739741,1.722133
17796503,1.553697
17848270,1.566587
17901479,1.53436
17954525,1.51019
18013792,1.473129
18069195,1.669764
18122871,1.322417
18176709,1.558531
18234043,1.148341
18319858,1.435212
18389136,1.50455
18424403,1.415876
18459807,1.324028
18493457,1.340948
18529305,1.359478
18563305,1.34981
18595890,1.365118
18629725,1.361895
18663496,1.366729
18698461,1.374786
18736185,1.519052
18770608,1.585924
18803449,1.352227
18839661,1.363507
18875996,2.971234
18912533,0.9299519
18985545,1.646349
19020504,1.727773
19059222,1.824454
19096180,1.818814
19133020,1.737441
19169659,1.695546
19206747,1.725356
19242949,1.729384
19276793,1.741469
19312222,1.756777
19349846,1.762417
19384359,1.768057
19422003,1.802701
19459529,2.03398
19497336,1.716493
19533484,1.727773
19605850,1.015354
19644014,1.809146
19684727,1.880902
19722521,1.973555
19762213,2.027535
19800335,1.958247
19838904,1.84379
19877621,1.788199
19914240,1.786587
19951065,1.805923
19990284,1.797061
20030123,1.785782
20072489,1.805118
20112288,1.789004
20150297,1.873651
20188162,1.98564
20266045,1.689101
20306465,2.836635
20347482,1.716493
20390434,1.798673
20428991,1.851847
20470325,1.917157
20510100,1.886541
20547889,1.771279
20588481,1.697157
20626201,1.708437
20667664,1.710048
20707550,1.680238
20745810,1.652845
20786943,1.628624
20829693,1.627819
20870617,1.632653
20947956,1.576255
20987654,1.544834
21029059,2.98493
21069848,1.232937
21108367,1.660902
21148972,1.718105
21189014,1.794644
21232815,1.826066
21272219,1.725356
21314430,1.610899
21353504,1.595592
21392590,1.626207
21434943,1.631847
21475703,1.607677
21519907,1.579478
21560861,1.598814
21636674,1.713271
21680781,1.631041
21724868,1.519052
21767980,1.865594
21812913,1.07583
21854371,1.639098
21899411,1.714882
21942683,1.805118
21984185,1.813175
22025522,1.686683
22069181,1.598814
22108506,1.586729
22155164,1.639098
22197112,1.622179
22238924,1.602843
22282526,1.571421
22363963,1.584312
22408294,1.642321
22456962,1.677015
22501513,1.554502
22542557,1.645544
22586152,0.9525109
22627817,1.652039
22669457,1.734219
22713187,1.826066
22756335,1.858343
22797731,1.722133
22841051,1.588341
22883414,1.602037
22928382,1.624596
22973365,1.633458
23021361,1.583507
23098958,1.606065
23144821,1.607677
23189203,1.63507
23230599,1.751943
23274698,1.579478
23317895,1.571421
23365968,2.590048
23409606,1.608482
23454423,1.723745
23500260,1.796255
23546289,1.868011
23592593,1.780142
23640837,1.603648
23689023,1.612511
23734166,1.621373
23783133,1.576255
23862028,1.543223
23907172,1.568199
23956123,1.562559
24004998,1.723745
24052400,1.489242
24096588,1.529526
24144385,1.030661
24190431,1.554502
24238571,1.624596
24284330,1.699574
24332295,1.70602
24380409,1.529526
24428782,1.510996
24475639,1.560142
24524455,1.542417
24570537,1.555308
24655402,1.551279
24705564,1.730996
24755722,1.502133
24802644,1.398956
24848228,0.9613732
24893670,1.62379
24942799,1.726162
24991602,1.85507
25046261,1.839762
25097156,1.657679
25144188,1.627819
25194533,1.675404
25245794,1.671376
25292732,1.667347
25340654,1.652845
25389157,1.688295
25474867,1.705214
25523736,1.608482
25571671,3.237963
25617087,1.664124
25665427,1.764028
25712768,1.867205
25762152,1.923603
25812325,1.797061
25859742,1.642321
25910015,1.668153
25960867,1.66493
26014984,1.668958
26062794,1.644738
26111978,1.654456
26161332,1.718105
26215549,1.672987
26304148,2.899529
26354120,1.597203
26404043,1.699574
26457395,1.803506
26508783,1.876873
26558672,1.684266
26609445,1.587535
26659114,1.593175
26711633,1.625402
26763119,1.592369
26815776,1.600426
26866120,1.59398
26916408,1.70602
26966963,1.554502
27021190,1.48602
27075598,1.091138
27160029,1.712465
27208239,1.808341
27261074,1.79545
27314065,1.645544
27365994,1.62379
27419742,1.651234
27471204,1.635875
27526256,1.600426
27579832,1.593175
27633324,1.70038
27686947,1.554502
27739280,1.473935
27791184,1.090332
27842438,1.646349
27893687,1.756777
27947677,1.854264
28034356,1.652845
28088258,1.631041
28142289,1.640709
28196387,1.625402
28248875,1.601231
28301522,1.598814
28357242,1.864788
28413872,1.567393
28468304,2.66417
28523603,1.573033
28579185,1.70038
28631594,1.822037
28686023,1.833316
28739152,1.635875
28792616,1.607677
28847175,1.636681
28939330,1.592369
29000206,1.614122
29057316,1.86076
29144624,1.543223
29180352,3.130002
29216671,1.232937
29251964,1.686683
29290849,1.740664
29325267,1.806729
29363523,1.841373
29399218,1.783365
29431286,1.689101
29466228,1.628624
29499198,1.616539
29535163,1.656873
29571305,1.677015
29638829,1.622985
29675687,1.643932
29712201,1.638292
29748826,1.651234
29785678,1.821231
29820867,1.587535
29857975,1.579478
29893264,1.642321
29928239,0.8646921
29963426,1.577867
30000865,1.719716
30038400,1.740664
30074060,1.838151
30109546,1.834928
30144900,1.717299
30179320,1.566587
30253047,1.522275
30289294,1.523081
30329163,1.472323
30365507,1.465072
30404044,1.423127
30443739,1.422321
30484814,1.390094
30523493,1.482797
30562284,1.376397
30601055,1.323223
30643534,1.758389
30682156,0.6785306
30719050,1.382843
30757809,1.446541
30797033,1.536777
30832805,1.63507
30907746,1.517441
30945393,1.4336
30982610,1.467489
31023687,1.485214
31064640,1.508579
31104666,1.544834
31147059,1.552085
31188547,1.585118
31224986,1.56981
31264748,1.728579
31302672,1.672987
31340620,1.561753
31381199,1.496493
31420278,1.046825
31459364,1.653651
31498682,1.779336
31572257,1.945356
31613148,1.956635
31652192,1.815592
31696043,1.722133
31733953,1.750332
31775137,1.763223
31816768,1.757583
31854443,1.76
31894884,1.741469
31933401,1.761611
31976888,1.762417
32017025,1.856732
32056566,1.813175
32096892,1.723745
32139421,1.924408
32179292,1.220851
32256280,1.873651
32300208,1.902655
32340913,1.953413
32385191,1.892987
32425146,1.747915
32464896,1.736635
32507977,1.745498
32553589,1.75436
32596296,1.693934
32636042,1.688295
32678544,1.689906
32718506,1.737441
32759126,1.70602
32800643,1.596397
32843222,2.253175
32887109,1.079858
32967019,1.732607
33009048,1.805118
33051291,1.802701
33092788,1.706825
33136601,1.608482
33180168,1.622179
33225573,1.627013
33270086,1.618956
33311205,1.600426
33353926,1.601231
33398603,1.706825
33442793,1.523886
33492958,1.550474
33540274,1.887347
33584953,1.580284
33632094,1.67621
33712497,1.779336
33755775,1.735024
33798861,1.589952
33843834,1.606871
33888828,1.631041
33932491,1.643127
33978217,1.606871
34022293,1.576255
34066499,1.690712
34110752,1.583507
34155085,1.536777
34202859,3.23474
34247027,1.519052
34290454,1.660096
34333660,1.753555
34382237,1.78981
34463098,1.653651
34507477,1.628624
34552224,1.66493
34603850,1.636681
34650747,1.639098
34696341,1.615734
34741813,1.696352
34790924,1.714882
34836837,1.547251
34881330,1.889764
34928675,1.214406
34973009,1.675404
35017978,1.73583
35065872,1.818009
35111729,1.834928
35159427,1.631041
35241508,1.611705
35286333,1.622179
35333540,1.615734
35382643,1.596397
35429323,1.598814
35474304,1.645544
35522740,1.708437
35571156,1.573838
35619758,1.556113
35668419,1.771279
35714482,1.615734
35764257,1.708437
35810346,1.82526
35860793,1.830899
35908841,1.691517
35957624,1.619762
36038513,1.625402
36084540,1.606065
36134311,1.601231
36184136,1.613317
36231567,1.618956
36281221,1.645544
36329976,1.755166
36378730,1.581089
36428189,2.327347
36475431,1.363507
36525634,1.713271
36578530,1.777725
36628406,1.911517
36680043,1.716493
36729178,1.610094
36779509,1.637487
36863727,1.607677
36912988,1.633458
36962476,1.577061
37013050,1.643932
37063396,1.622179
37120247,1.822843
37172517,1.579478
37223391,1.888153
37275426,1.390094
37330883,1.703603
37383988,1.805923
37439194,1.8664
37492613,1.671376
37547513,1.574644
37601211,1.60526
37651427,1.587535
37741214,1.551279
37790841,1.602037
37842450,1.594786
37894218,1.848624
37944302,1.555308
37997389,1.692323
38050121,1.161231
38102960,1.677015
38156193,1.78981
38207648,1.87929
38260987,1.698769
38314784,1.609288
38366408,1.63507
38419948,1.632653
38473890,1.624596
38527912,1.63507
38614848,1.710854
38668853,1.589952
38720784,1.470712
38772331,1.174928
38828208,1.684266
38879925,1.770474
38935210,1.847013
38987854,1.703603
39042463,1.583507
39098930,1.614122
39155512,1.613317
39213066,1.557725
39268821,1.527109
39321196,1.691517
39378034,1.452987
39432286,1.632653
39523412,1.498105
39578786,1.620568
39634274,1.727773
39685343,1.582701
39743770,1.489242
39795961,1.540806
39849687,1.553697
39906991,1.548057
39995751,1.544028
40034058,1.666541
40069878,1.697157
40102163,1.518247
40137836,1.542417
40171482,2.725452
40207418,1.095972
40243099,1.615734
40311099,1.788199
40343880,1.84379
40378235,1.884124
40414853,1.786587
40450081,1.70038
40485519,1.67621
40524887,1.695546
40558404,1.709242
40596998,1.72455
40633090,1.725356
40667979,1.691517
40704920,1.686683
40739890,1.705214
40778486,1.79545
40815973,1.719716
40853521,1.660902
40926599,1.139478
40964106,1.668958
40999606,1.755166
41038433,1.803506
41077917,1.913129
41114186,1.922797
41152488,1.771279
41186208,1.654456
41221419,1.620568
41261423,1.663319
41300414,1.639904
41336657,1.650428
41370999,1.639098
41409477,1.601231
41443752,1.588341
41480616,1.625402
41551872,1.693129
41587892,1.876068
41625218,1.574644
41661861,1.56417
41698433,2.317679
41735149,1.012131
41774410,1.65929
41813608,1.712465
41851814,1.792227
41891821,1.851041
41928727,1.847819
41964187,1.621373
41999489,1.560142
42040092,1.532749
42079571,1.571421
42125740,1.526304
42206650,1.561753
42244808,1.573033
42286564,1.57545
42329046,1.610094
42367257,1.81398
42404580,1.540806
42443434,1.535166
42483412,2.886587
42522501,1.066162
42562501,1.620568
42599518,1.697963
42638823,1.783365
42679446,1.842179
42721039,1.756777
42762406,1.614928
42801128,1.560142
42877229,1.667347
42918137,1.642321
42962089,1.65929
43000821,1.643127
43039334,1.645544
43079400,1.672181
43125473,1.878485
43167892,1.618956
43208570,1.619762
43249409,2.793935
43292034,1.573033
43333401,1.703603
43373949,1.774502
43415852,1.81962
43456816,1.785782
43500116,1.672181
43580026,1.631847
43621424,1.631847
43662646,1.614928
43703963,1.655262
43745455,1.62943
43790458,1.658485
43837079,1.827677
43878011,1.598814
43920157,1.487631
43963551,1.8664
44006508,1.606065
44050236,1.679432
44093522,1.780142
44136009,1.802701
44180551,1.744692
44225017,1.601231
44307261,1.627013
44351664,1.638292
44394134,1.622179
44436935,1.571421
44478230,1.681044
44521293,1.679432
44566227,1.550474
44609139,1.634264
44653979,1.216823
44700552,1.631847
44746053,1.675404
44792260,1.75436
44835550,1.783365
44883268,1.681044
44931845,1.638292
44976550,1.681044
45057887,1.650428
45103898,1.586729
45149365,1.833316
45195033,1.522275
45241485,1.481991
45285262,1.942133
45331211,1.505356
45376842,1.576255
45430244,1.615734
45478687,1.577061
45525265,1.483603
45573320,1.429572
45623129,1.485214
45671877,1.513413
45722741,1.472323
45772807,1.523081
45856843,1.394122
45905900,1.380426
45951456,1.079858
45999242,1.482797
46045062,1.602037
46094552,1.653651
46142797,1.618956
46189317,1.560142
46235074,1.622985
46282415,1.643127
46330016,1.668153
46378765,1.673793
46425839,1.70038
46473912,1.729384
46521000,1.87929
46566898,1.641515
46649304,1.608482
46698465,1.73019
46747880,1.826066
46793641,1.899432
46843212,1.898627
46890678,1.834122
46938766,1.802701
46990193,1.81398
47038413,1.800284
47088595,1.776114
47137834,1.764834
47185274,1.747109
47236124,1.802701
47288786,1.812369
47341920,1.84379
47391363,1.716493
47473741,1.220851
47525798,1.779336
47575433,1.802701
47625754,1.855875
47676958,1.801895
47728338,1.686683
47776518,1.669764
47829661,1.640709
47879758,1.616539
47928240,1.603648
47981282,1.585924
48033306,1.615734
48089046,1.612511
48142415,1.809952
48190988,1.530332
48242746,1.4691
48331072,1.627013
48381411,1.717299
48433024,1.75436
48483409,1.747109
48532535,1.627819
48584590,1.582701
48637476,1.633458
48690079,1.610094
48740805,1.581089
48796395,1.585924
48845941,1.556113
48899177,1.537583
48952666,1.771279
49002584,1.457821
49055719,1.52872
49105975,1.053271
49195508,1.554502
49245644,1.594786
49296874,1.566587
49349031,1.40943
49402087,1.404596
49455966,1.440851
49511597,1.419098
49567139,1.431989
49619545,1.452987
49673952,1.493271
49725716,1.516635
49778069,1.621373
49834380,1.520664
49890285,2.48531
49944163,1.602037
49994756,1.742275
50088910,1.872845
50142199,1.699574
50197714,1.687489
50249068,1.739052
50304217,1.714882
50357794,1.725356
50411502,1.753555
50465339,1.76
50521003,1.835733
50574510,1.786587
50630157,1.743886
50687157,1.618151
50776829,1.848624
50808787,1.917157
50844650,1.941328
50881826,1.936493
50951680,1.776114
50994697,1.792227
51033275,1.800284
51068940,1.807535
51105829,1.780948
51143450,1.771279
51176702,1.783365
51210061,1.762417
51245917,1.740664
51282105,1.747109
51317534,1.842985
51354019,1.897821
51386232,1.668958
51418637,1.660096
51452596,1.992085
51486625,1.12981
51559374,1.761611
51593260,1.793838
51628339,1.841373
51665169,1.838956
51704118,1.718105
51737878,1.669764
51773230,1.63507
51807631,1.639904
51848187,1.624596
51885595,1.606871
51921798,1.59962
51957079,1.613317
51995324,1.59398
52041563,1.603648
52079736,1.613317
52117528,1.643932
52191970,1.556919
52228568,1.550474
52267079,2.804408
52305486,1.136255
52343725,1.614122
52380199,1.681044
52416678,1.755166
52457258,1.806729
52497870,1.764028
52535239,1.613317
52569955,1.576255
52608219,1.573838
52646540,1.585118
52684749,1.579478
52723987,1.590758
52761815,1.593175
52836480,1.610094
52876134,1.59962
52917425,1.681849
52956889,1.777725
52996665,1.568199
53032706,1.541611
53070787,3.026825
53109341,1.521469
53149284,1.646349
53186842,1.708437
53227547,1.793033
53269879,1.826066
53310803,1.67621
53350016,1.573838
53389429,1.573838
53432284,1.582701
53509925,1.552085
53550589,1.548862
53593307,1.548057
53633560,1.552085
53674505,1.57545
53715615,1.678627
53755525,1.62379
53794741,1.556919
53836081,1.453793
53877278,1.13545
53925759,1.598814
